182.5000000000;11.6820802689
183.0000000000;10.3239250183
183.5000000000;9.3312292099
184.0000000000;8.8298101425
184.5000000000;8.7122459412
185.0000000000;7.8175611496
185.5000000000;6.0525159836
186.0000000000;5.1585130692
186.5000000000;4.0307836533
187.0000000000;2.0707907677
187.5000000000;1.2056820393
188.0000000000;0.9823654890
188.5000000000;0.7207616568
189.0000000000;0.4364121854
189.5000000000;0.3251260817
190.0000000000;0.3012925684
190.5000000000;0.2753548622
191.0000000000;0.2307335734
191.5000000000;0.1893316060
192.0000000000;0.1810821593
192.5000000000;0.1949282587
193.0000000000;0.1772070676
193.5000000000;0.1471047997
194.0000000000;0.1469862163
194.5000000000;0.1531670690
195.0000000000;0.1452708691
195.5000000000;0.1366295964
196.0000000000;0.1314121187
196.5000000000;0.1221133471
197.0000000000;0.1111989915
197.5000000000;0.1043468490
198.0000000000;0.1036102697
198.5000000000;0.1039382443
199.0000000000;0.0946773589
199.5000000000;0.0798659846
200.0000000000;0.0696306378
200.5000000000;0.0679195821
201.0000000000;0.0716418326
201.5000000000;0.0699456409
202.0000000000;0.0641733482
202.5000000000;0.0627914369
203.0000000000;0.0616529956
203.5000000000;0.0564755388
204.0000000000;0.0535093062
204.5000000000;0.0557530634
205.0000000000;0.0604443029
205.5000000000;0.0634775907
206.0000000000;0.0613550246
206.5000000000;0.0566493347
207.0000000000;0.0544922575
207.5000000000;0.0609928668
208.0000000000;0.0712053031
208.5000000000;0.0731450394
209.0000000000;0.0724622309
209.5000000000;0.0754286423
210.0000000000;0.0724571794
210.5000000000;0.0642958134
211.0000000000;0.0648134053
211.5000000000;0.0752858743
212.0000000000;0.0873502046
212.5000000000;0.0840620324
213.0000000000;0.0671159700
213.5000000000;0.0647179335
214.0000000000;0.0733690038
214.5000000000;0.0726285875
215.0000000000;0.0653611645
215.5000000000;0.0591526330
216.0000000000;0.0575255789
216.5000000000;0.0583758466
217.0000000000;0.0563999079
217.5000000000;0.0532454625
218.0000000000;0.0517899022
218.5000000000;0.0511999503
219.0000000000;0.0495235845
219.5000000000;0.0448684730
220.0000000000;0.0418744572
220.5000000000;0.0451234467
221.0000000000;0.0458917208
221.5000000000;0.0403712727
222.0000000000;0.0377133973
222.5000000000;0.0403883420
223.0000000000;0.0446488522
223.5000000000;0.0468490496
224.0000000000;0.0460479073
224.5000000000;0.0479878858
225.0000000000;0.0525122210
225.5000000000;0.0521059409
226.0000000000;0.0484250188
226.5000000000;0.0475270301
227.0000000000;0.0516464934
227.5000000000;0.0581517592
228.0000000000;0.0586905964
228.5000000000;0.0555153564
229.0000000000;0.0570563562
229.5000000000;0.0604489483
230.0000000000;0.0614987835
230.5000000000;0.0611714944
231.0000000000;0.0615236014
231.5000000000;0.0643456057
232.0000000000;0.0668980107
232.5000000000;0.0653377697
233.0000000000;0.0583544113
233.5000000000;0.0524820164
234.0000000000;0.0604447685
234.5000000000;0.0680830181
235.0000000000;0.0566882230
235.5000000000;0.0471972637
236.0000000000;0.0527115129
236.5000000000;0.0596639179
237.0000000000;0.0623997301
237.5000000000;0.0627490506
238.0000000000;0.0618358329
238.5000000000;0.0600529574
239.0000000000;0.0569826998
239.5000000000;0.0546612404
240.0000000000;0.0564335734
240.5000000000;0.0571983606
241.0000000000;0.0523733087
241.5000000000;0.0496600084
242.0000000000;0.0527674481
242.5000000000;0.0574518219
243.0000000000;0.0595307574
243.5000000000;0.0565158874
244.0000000000;0.0517073460
244.5000000000;0.0496704765
245.0000000000;0.0542027317
245.5000000000;0.0623032004
246.0000000000;0.0660633892
246.5000000000;0.0629927963
247.0000000000;0.0553249009
247.5000000000;0.0520630516
248.0000000000;0.0562549420
248.5000000000;0.0624314249
249.0000000000;0.0657815784
249.5000000000;0.0639290363
250.0000000000;0.0617060214
250.5000000000;0.0624908134
251.0000000000;0.0645137951
251.5000000000;0.0685298145
252.0000000000;0.0755522698
252.5000000000;0.0763804987
253.0000000000;0.0689314306
253.5000000000;0.0731012821
254.0000000000;0.0858515203
254.5000000000;0.0828474090
255.0000000000;0.0721789151
255.5000000000;0.0711886585
256.0000000000;0.0805850178
256.5000000000;0.0919888839
257.0000000000;0.0915275142
257.5000000000;0.0863460228
258.0000000000;0.0905540735
258.5000000000;0.0979512930
259.0000000000;0.1022343487
259.5000000000;0.1049840152
260.0000000000;0.1087739766
260.5000000000;0.1154113337
261.0000000000;0.1218976155
261.5000000000;0.1253244579
262.0000000000;0.1264208704
262.5000000000;0.1328950822
263.0000000000;0.1555148959
263.5000000000;0.1853167862
264.0000000000;0.2095467597
264.5000000000;0.2274143994
265.0000000000;0.2440415621
265.5000000000;0.2674716711
266.0000000000;0.2912310660
266.5000000000;0.3068188131
267.0000000000;0.3258878589
267.5000000000;0.3495259583
268.0000000000;0.3579774499
268.5000000000;0.3571549654
269.0000000000;0.3672887981
269.5000000000;0.3863653839
270.0000000000;0.4048726261
270.5000000000;0.4125857949
271.0000000000;0.4164559543
271.5000000000;0.4346240461
272.0000000000;0.4558446109
272.5000000000;0.4662362635
273.0000000000;0.4777061641
273.5000000000;0.4998902977
274.0000000000;0.5332210064
274.5000000000;0.5648698211
275.0000000000;0.5836889744
275.5000000000;0.6120320559
276.0000000000;0.6572176218
276.5000000000;0.6908789277
277.0000000000;0.7113560438
277.5000000000;0.7371657491
278.0000000000;0.7740876079
278.5000000000;0.8194423914
279.0000000000;0.8616244197
279.5000000000;0.8958882093
280.0000000000;0.9264066219
280.5000000000;0.9630668163
281.0000000000;1.0120699406
281.5000000000;1.0616335869
282.0000000000;1.1084479094
282.5000000000;1.1632692814
283.0000000000;1.2253937721
283.5000000000;1.2893118858
284.0000000000;1.3576015234
284.5000000000;1.4313725233
285.0000000000;1.5070350170
285.5000000000;1.5810102224
286.0000000000;1.6503666639
286.5000000000;1.7177292109
287.0000000000;1.7881422043
287.5000000000;1.8673017025
288.0000000000;1.9452785254
288.5000000000;2.0027122498
289.0000000000;2.0594401360
289.5000000000;2.1316571236
290.0000000000;2.1852290630
290.5000000000;2.2184166908
291.0000000000;2.2694926262
291.5000000000;2.3273270130
292.0000000000;2.3681507111
292.5000000000;2.4127693176
293.0000000000;2.4683268070
293.5000000000;2.5114223957
294.0000000000;2.5483932495
294.5000000000;2.5972318649
295.0000000000;2.6372642517
295.5000000000;2.6587171555
296.0000000000;2.6870543957
296.5000000000;2.7187116146
297.0000000000;2.7323873043
297.5000000000;2.7530658245
298.0000000000;2.7965078354
298.5000000000;2.8229072094
299.0000000000;2.8302772045
299.5000000000;2.8552937508
300.0000000000;2.8872952461
300.5000000000;2.9046657085
301.0000000000;2.9163544178
301.5000000000;2.9282429218
302.0000000000;2.9360191822
302.5000000000;2.9403879642
303.0000000000;2.9451982975
303.5000000000;2.9541497231
304.0000000000;2.9668829441
304.5000000000;2.9769077301
305.0000000000;2.9806532860
305.5000000000;2.9782989025
306.0000000000;2.9761943817
306.5000000000;2.9801683426
307.0000000000;2.9908757210
307.5000000000;3.0007181168
308.0000000000;2.9984776974
308.5000000000;2.9944508076
309.0000000000;2.9980514050
309.5000000000;2.9945831299
310.0000000000;2.9851434231
310.5000000000;2.9894795418
311.0000000000;2.9932131767
311.5000000000;2.9777870178
312.0000000000;2.9724242687
312.5000000000;2.9835984707
313.0000000000;2.9741086960
313.5000000000;2.9560787678
314.0000000000;2.9632782936
314.5000000000;2.9721183777
315.0000000000;2.9635002613
315.5000000000;2.9560682774
316.0000000000;2.9575273991
316.5000000000;2.9625787735
317.0000000000;2.9633123875
317.5000000000;2.9567148685
318.0000000000;2.9532232285
318.5000000000;2.9583013058
319.0000000000;2.9683735371
319.5000000000;2.9670579433
320.0000000000;2.9474740028
320.5000000000;2.9482703209
321.0000000000;2.9765367508
321.5000000000;2.9903683662
322.0000000000;2.9860007763
322.5000000000;2.9819488525
323.0000000000;2.9888765812
323.5000000000;3.0037126541
324.0000000000;3.0060164928
324.5000000000;2.9992570877
325.0000000000;3.0025315285
325.5000000000;3.0201981068
326.0000000000;3.0446302891
326.5000000000;3.0549714565
327.0000000000;3.0550520420
327.5000000000;3.0672776699
328.0000000000;3.0844514370
328.5000000000;3.0945847034
329.0000000000;3.1027355194
329.5000000000;3.1153128147
330.0000000000;3.1358363628
330.5000000000;3.1564595699
331.0000000000;3.1674299240
331.5000000000;3.1690022945
332.0000000000;3.1649158001
332.5000000000;3.1616137028
333.0000000000;3.1707425117
333.5000000000;3.1965365410
334.0000000000;3.2052664757
334.5000000000;3.1927449703
335.0000000000;3.2098298073
335.5000000000;3.2397546768
336.0000000000;3.2312269211
336.5000000000;3.2108299732
337.0000000000;3.2123806477
337.5000000000;3.2378165722
338.0000000000;3.2673735619
338.5000000000;3.2726333141
339.0000000000;3.2640452385
339.5000000000;3.2579119205
340.0000000000;3.2518124580
340.5000000000;3.2524409294
341.0000000000;3.2719030380
341.5000000000;3.2769346237
342.0000000000;3.2442655563
342.5000000000;3.2333092690
343.0000000000;3.2525515556
343.5000000000;3.2409517765
344.0000000000;3.2193329334
344.5000000000;3.2288844585
345.0000000000;3.2232818604
345.5000000000;3.1856515408
346.0000000000;3.1649131775
346.5000000000;3.1666328907
347.0000000000;3.1673586369
347.5000000000;3.1516969204
348.0000000000;3.1204905510
348.5000000000;3.0970304012
349.0000000000;3.0844786167
349.5000000000;3.0699865818
350.0000000000;3.0452764034
350.5000000000;3.0127990246
351.0000000000;2.9924063683
351.5000000000;2.9768137932
352.0000000000;2.9389493465
352.5000000000;2.8941769600
353.0000000000;2.8607964516
353.5000000000;2.8229806423
354.0000000000;2.7807810307
354.5000000000;2.7532629967
355.0000000000;2.7286458015
355.5000000000;2.6888959408
356.0000000000;2.6428341866
356.5000000000;2.6026692390
357.0000000000;2.5761380196
357.5000000000;2.5467095375
358.0000000000;2.4950916767
358.5000000000;2.4442658424
359.0000000000;2.4136774540
359.5000000000;2.4017133713
360.0000000000;2.3769938946
360.5000000000;2.3123064041
361.0000000000;2.2379932404
361.5000000000;2.1704778671
362.0000000000;2.1351778507
362.5000000000;2.1189815998
363.0000000000;2.0767455101
363.5000000000;2.0206761360
364.0000000000;1.9746912718
364.5000000000;1.9411170483
365.0000000000;1.9030133486
365.5000000000;1.8361746073
366.0000000000;1.7771141529
366.5000000000;1.7564814091
367.0000000000;1.7178688049
367.5000000000;1.6472529173
368.0000000000;1.5902717113
368.5000000000;1.5591200590
369.0000000000;1.5434100628
369.5000000000;1.5203970671
370.0000000000;1.4834942818
370.5000000000;1.4499713182
371.0000000000;1.4178845882
371.5000000000;1.3778856993
372.0000000000;1.3405233622
372.5000000000;1.3077330589
373.0000000000;1.2629878521
373.5000000000;1.2177267075
374.0000000000;1.1935786009
374.5000000000;1.1633414030
375.0000000000;1.1147300005
375.5000000000;1.0860008001
376.0000000000;1.0753885508
376.5000000000;1.0515365601
377.0000000000;1.0202975273
377.5000000000;0.9955281615
378.0000000000;0.9780052304
378.5000000000;0.9596337080
379.0000000000;0.9301328063
379.5000000000;0.9007887840
380.0000000000;0.8833055496
380.5000000000;0.8725032210
381.0000000000;0.8539758921
381.5000000000;0.8121174574
382.0000000000;0.7847831249
382.5000000000;0.8036571145
383.0000000000;0.8080345392
383.5000000000;0.7741488218
384.0000000000;0.7409085035
384.5000000000;0.7258091569
385.0000000000;0.7240624428
385.5000000000;0.7102981210
386.0000000000;0.6833026409
386.5000000000;0.6780107617
387.0000000000;0.6881928444
387.5000000000;0.6872071028
388.0000000000;0.6739561558
388.5000000000;0.6582174301
389.0000000000;0.6554071307
389.5000000000;0.6542621255
390.0000000000;0.6369044781
390.5000000000;0.6517459154
391.0000000000;0.7073780298
391.5000000000;0.7092616558
392.0000000000;0.6625522971
392.5000000000;0.6445506215
393.0000000000;0.6463290453
393.5000000000;0.6460941434
394.0000000000;0.6540154219
394.5000000000;0.6627010703
395.0000000000;0.6532546878
395.5000000000;0.6530790329
396.0000000000;0.6794497967
396.5000000000;0.6804867983
397.0000000000;0.6550121903
397.5000000000;0.6557011604
398.0000000000;0.6725320816
398.5000000000;0.6804060936
399.0000000000;0.6881705523
399.5000000000;0.6979619861
400.0000000000;0.6994810104
400.5000000000;0.6993362308
401.0000000000;0.7089482546
401.5000000000;0.7253618240
402.0000000000;0.7394188643
402.5000000000;0.7405949235
403.0000000000;0.7490310073
403.5000000000;0.7820323706
404.0000000000;0.7865834236
404.5000000000;0.7578555942
405.0000000000;0.7730484605
405.5000000000;0.8145155907
406.0000000000;0.8259881735
406.5000000000;0.8386309147
407.0000000000;0.8749163747
407.5000000000;0.9082551003
408.0000000000;0.9409685731
408.5000000000;0.9900605083
409.0000000000;1.0245610476
409.5000000000;1.0337936878
410.0000000000;1.0630282164
410.5000000000;1.1113796234
411.0000000000;1.1456000805
411.5000000000;1.1717894077
412.0000000000;1.2029461861
412.5000000000;1.2404470444
413.0000000000;1.2846986055
413.5000000000;1.3381223679
414.0000000000;1.3959045410
414.5000000000;1.4535326958
415.0000000000;1.5186381340
415.5000000000;1.5863922834
416.0000000000;1.6460031271
416.5000000000;1.7058304548
417.0000000000;1.7733640671
417.5000000000;1.8430162668
418.0000000000;1.9125608206
418.5000000000;1.9865473509
419.0000000000;2.0774199963
419.5000000000;2.1857106686
420.0000000000;2.2821707726
420.5000000000;2.3607432842
421.0000000000;2.4421894550
421.5000000000;2.5420858860
422.0000000000;2.6660294533
422.5000000000;2.7857162952
423.0000000000;2.8898839951
423.5000000000;3.0017535686
424.0000000000;3.1268491745
424.5000000000;3.2672147751
425.0000000000;3.4264547825
425.5000000000;3.5914421082
426.0000000000;3.7568447590
426.5000000000;3.9214999676
427.0000000000;4.0685830116
427.5000000000;4.2103028297
428.0000000000;4.3721408844
428.5000000000;4.5577263832
429.0000000000;4.7610816956
429.5000000000;4.9616775513
430.0000000000;5.1535792351
430.5000000000;5.3512358665
431.0000000000;5.5662755966
431.5000000000;5.7929797173
432.0000000000;6.0163669586
432.5000000000;6.2487382889
433.0000000000;6.4971237183
433.5000000000;6.7326111794
434.0000000000;6.9562935829
434.5000000000;7.2248888016
435.0000000000;7.5201587677
435.5000000000;7.7801032066
436.0000000000;8.0345220566
436.5000000000;8.3099308014
437.0000000000;8.6012392044
437.5000000000;8.9022150040
438.0000000000;9.2044982910
438.5000000000;9.5017318726
439.0000000000;9.7972488403
439.5000000000;10.1017637253
440.0000000000;10.4250869751
440.5000000000;10.7673797607
441.0000000000;11.0943460464
441.5000000000;11.3873634338
442.0000000000;11.7051639557
442.5000000000;12.0661535263
443.0000000000;12.4295434952
443.5000000000;12.7869424820
444.0000000000;13.1380014420
444.5000000000;13.4836912155
445.0000000000;13.8397369385
445.5000000000;14.2176437378
446.0000000000;14.5975389481
446.5000000000;14.9685373306
447.0000000000;15.3467378616
447.5000000000;15.7369909286
448.0000000000;16.1279716492
448.5000000000;16.5210819244
449.0000000000;16.9160022736
449.5000000000;17.3069419861
450.0000000000;17.7018947601
450.5000000000;18.1090774536
451.0000000000;18.5167961121
451.5000000000;18.9216346741
452.0000000000;19.3386859894
452.5000000000;19.7609977722
453.0000000000;20.1767673492
453.5000000000;20.5909366608
454.0000000000;21.0115680695
454.5000000000;21.4477787018
455.0000000000;21.8926448822
455.5000000000;22.3310623169
456.0000000000;22.7462368011
456.5000000000;23.1477928162
457.0000000000;23.5749034882
457.5000000000;24.0164260864
458.0000000000;24.4422760010
458.5000000000;24.8582572937
459.0000000000;25.2928409576
459.5000000000;25.7579650879
460.0000000000;26.2297210693
460.5000000000;26.6887912750
461.0000000000;27.1498718262
461.5000000000;27.6088657379
462.0000000000;28.0604667664
462.5000000000;28.5014610291
463.0000000000;28.9041423798
463.5000000000;29.3119945526
464.0000000000;29.7750511169
464.5000000000;30.2453975677
465.0000000000;30.6963691711
465.5000000000;31.1512889862
466.0000000000;31.6172218323
466.5000000000;32.0871353149
467.0000000000;32.5593185425
467.5000000000;33.0233078003
468.0000000000;33.4671592712
468.5000000000;33.9184684753
469.0000000000;34.4100952148
469.5000000000;34.9168777466
470.0000000000;35.4029388428
470.5000000000;35.8531570435
471.0000000000;36.2965393066
471.5000000000;36.7573661804
472.0000000000;37.2180519104
472.5000000000;37.6606788635
473.0000000000;38.0763969421
473.5000000000;38.5040779114
474.0000000000;38.9836883545
474.5000000000;39.4730720520
475.0000000000;39.9320869446
475.5000000000;40.3672752380
476.0000000000;40.7934265137
476.5000000000;41.2254638672
477.0000000000;41.6765136719
477.5000000000;42.1368637085
478.0000000000;42.5762863159
478.5000000000;43.0067176819
479.0000000000;43.4577827454
479.5000000000;43.9062347412
480.0000000000;44.3259315491
480.5000000000;44.7320747375
481.0000000000;45.1532135010
481.5000000000;45.5924034119
482.0000000000;46.0133705139
482.5000000000;46.4148941040
483.0000000000;46.8232917786
483.5000000000;47.2353630066
484.0000000000;47.6262054443
484.5000000000;47.9784088135
485.0000000000;48.4073066711
485.5000000000;48.9013328552
486.0000000000;49.1455841064
486.5000000000;49.2043914795
487.0000000000;49.5748634338
487.5000000000;50.2840957642
488.0000000000;50.7851524353
488.5000000000;51.1219596863
489.0000000000;51.5116043091
489.5000000000;51.8794517517
490.0000000000;52.2028160095
490.5000000000;52.5491752625
491.0000000000;52.9212989807
491.5000000000;53.2950515747
492.0000000000;53.6549263000
492.5000000000;53.9853172302
493.0000000000;54.2842140198
493.5000000000;54.5949554443
494.0000000000;54.9571990967
494.5000000000;55.3409118652
495.0000000000;55.7108764648
495.5000000000;56.0533332825
496.0000000000;56.3655319214
496.5000000000;56.6510238647
497.0000000000;56.9361648560
497.5000000000;57.2453689575
498.0000000000;57.5675086975
498.5000000000;57.8498344421
499.0000000000;58.0863189697
499.5000000000;58.3648452759
500.0000000000;58.6940689087
500.5000000000;59.0018997192
501.0000000000;59.2668228149
501.5000000000;59.5055160522
502.0000000000;59.7720413208
502.5000000000;60.0682487488
503.0000000000;60.3403320313
503.5000000000;60.5971488953
504.0000000000;60.8640403748
504.5000000000;61.1302070618
505.0000000000;61.3820304871
505.5000000000;61.6161193848
506.0000000000;61.8540229797
506.5000000000;62.1099472046
507.0000000000;62.3633384705
507.5000000000;62.5953826904
508.0000000000;62.7958030701
508.5000000000;63.0091934204
509.0000000000;63.2664718628
509.5000000000;63.5155029297
510.0000000000;63.7283668518
510.5000000000;63.9187660217
511.0000000000;64.1234130859
511.5000000000;64.3518142700
512.0000000000;64.5565185547
512.5000000000;64.7421340942
513.0000000000;64.9476013184
513.5000000000;65.1738357544
514.0000000000;65.4014816284
514.5000000000;65.5947265625
515.0000000000;65.7721786499
515.5000000000;65.9794464111
516.0000000000;66.1870803833
516.5000000000;66.3709259033
517.0000000000;66.5500106812
517.5000000000;66.7298889160
518.0000000000;66.9068222046
518.5000000000;67.0873413086
519.0000000000;67.2698440552
519.5000000000;67.4373245239
520.0000000000;67.6039047241
520.5000000000;67.7936782837
521.0000000000;67.9683990479
521.5000000000;68.1147613525
522.0000000000;68.2916793823
522.5000000000;68.4852828979
523.0000000000;68.6414337158
523.5000000000;68.7892303467
524.0000000000;68.9540100098
524.5000000000;69.1163024902
525.0000000000;69.2703781128
525.5000000000;69.4215545654
526.0000000000;69.5685424805
526.5000000000;69.7097702026
527.0000000000;69.8471679688
527.5000000000;69.9892807007
528.0000000000;70.1439819336
528.5000000000;70.3030395508
529.0000000000;70.4584197998
529.5000000000;70.6096267700
530.0000000000;70.7458724976
530.5000000000;70.8615798950
531.0000000000;70.9965820313
531.5000000000;71.1578369141
532.0000000000;71.2980041504
532.5000000000;71.4208755493
533.0000000000;71.5503616333
533.5000000000;71.6756973267
534.0000000000;71.7950744629
534.5000000000;71.9240493774
535.0000000000;72.0567321777
535.5000000000;72.1817703247
536.0000000000;72.3104782104
536.5000000000;72.4470367432
537.0000000000;72.5796585083
537.5000000000;72.7003555298
538.0000000000;72.8071670532
538.5000000000;72.9077148438
539.0000000000;73.0152053833
539.5000000000;73.1433486938
540.0000000000;73.2814178467
540.5000000000;73.4117736816
541.0000000000;73.5313186646
541.5000000000;73.6411743164
542.0000000000;73.7440643311
542.5000000000;73.8484954834
543.0000000000;73.9653320313
543.5000000000;74.0959243774
544.0000000000;74.2268524170
544.5000000000;74.3396377563
545.0000000000;74.4421234131
545.5000000000;74.5494918823
546.0000000000;74.6686401367
546.5000000000;74.7894515991
547.0000000000;74.8916854858
547.5000000000;74.9792327881
548.0000000000;75.0675735474
548.5000000000;75.1770858765
549.0000000000;75.3058853149
549.5000000000;75.4309158325
550.0000000000;75.5400466919
550.5000000000;75.6398696899
551.0000000000;75.7596893311
551.5000000000;75.8856048584
552.0000000000;75.9790573120
552.5000000000;76.0718688965
553.0000000000;76.1846084595
553.5000000000;76.2754287720
554.0000000000;76.3533477783
554.5000000000;76.4592742920
555.0000000000;76.5708770752
555.5000000000;76.6660919189
556.0000000000;76.7595672607
556.5000000000;76.8604888916
557.0000000000;76.9670867920
557.5000000000;77.0628356934
558.0000000000;77.1476516724
558.5000000000;77.2499542236
559.0000000000;77.3640441895
559.5000000000;77.4655380249
560.0000000000;77.5541229248
560.5000000000;77.6401443481
561.0000000000;77.7371368408
561.5000000000;77.8381118774
562.0000000000;77.9304351807
562.5000000000;78.0235671997
563.0000000000;78.1234741211
563.5000000000;78.2256317139
564.0000000000;78.3221130371
564.5000000000;78.4093322754
565.0000000000;78.5019989014
565.5000000000;78.6016769409
566.0000000000;78.6923446655
566.5000000000;78.7749786377
567.0000000000;78.8526916504
567.5000000000;78.9162673950
568.0000000000;78.9577560425
568.5000000000;78.9734725952
569.0000000000;79.0014648438
569.5000000000;79.0650558472
570.0000000000;79.1161575317
570.5000000000;79.1809463501
571.0000000000;79.3308029175
571.5000000000;79.4570159912
572.0000000000;79.4831085205
572.5000000000;79.5232849121
573.0000000000;79.5869140625
573.5000000000;79.6202011108
574.0000000000;79.6539993286
574.5000000000;79.7191848755
575.0000000000;79.7886276245
575.5000000000;79.8577957153
576.0000000000;79.9547958374
576.5000000000;80.1289291382
577.0000000000;80.3183441162
577.5000000000;80.2963104248
578.0000000000;80.2249755859
578.5000000000;80.4036407471
579.0000000000;80.6887893677
579.5000000000;80.8604660034
580.0000000000;80.8256378174
580.5000000000;80.7276916504
581.0000000000;80.7316665649
581.5000000000;80.6382980347
582.0000000000;80.4829101563
582.5000000000;80.5805282593
583.0000000000;80.8544235229
583.5000000000;81.0222473145
584.0000000000;81.0195999146
584.5000000000;80.9575729370
585.0000000000;81.0138549805
585.5000000000;81.1417999268
586.0000000000;81.2444229126
586.5000000000;81.3515319824
587.0000000000;81.4550552368
587.5000000000;81.5001678467
588.0000000000;81.5118331909
588.5000000000;81.5448455811
589.0000000000;81.6519165039
589.5000000000;81.8206481934
590.0000000000;81.9708251953
590.5000000000;82.0654525757
591.0000000000;82.1157608032
591.5000000000;82.1725463867
592.0000000000;82.2526092529
592.5000000000;82.3347854614
593.0000000000;82.3794174194
593.5000000000;82.4090270996
594.0000000000;82.5267181396
594.5000000000;82.6571807861
595.0000000000;82.6774215698
595.5000000000;82.7234420776
596.0000000000;82.8657684326
596.5000000000;83.0006179810
597.0000000000;83.0911865234
597.5000000000;83.1633300781
598.0000000000;83.2621002197
598.5000000000;83.3836593628
599.0000000000;83.4672317505
599.5000000000;83.5421981812
600.0000000000;83.6444854736
600.5000000000;83.7034149170
601.0000000000;83.7123336792
601.5000000000;83.7429885864
602.0000000000;83.8308715820
602.5000000000;83.9552001953
603.0000000000;84.0150146484
603.5000000000;84.0261001587
604.0000000000;84.0905990601
604.5000000000;84.2067108154
605.0000000000;84.3205490112
605.5000000000;84.3811645508
606.0000000000;84.4054870605
606.5000000000;84.4403152466
607.0000000000;84.4834518433
607.5000000000;84.5243759155
608.0000000000;84.5587463379
608.5000000000;84.6045684814
609.0000000000;84.6725540161
609.5000000000;84.6973876953
610.0000000000;84.6764450073
610.5000000000;84.6977157593
611.0000000000;84.7435226440
611.5000000000;84.7658538818
612.0000000000;84.7937240601
612.5000000000;84.8304138184
613.0000000000;84.8413848877
613.5000000000;84.8427276611
614.0000000000;84.8635482788
614.5000000000;84.9094924927
615.0000000000;84.9546890259
615.5000000000;84.9605255127
616.0000000000;84.9834213257
616.5000000000;85.0610427856
617.0000000000;85.1254119873
617.5000000000;85.1461486816
618.0000000000;85.1434097290
618.5000000000;85.1612854004
619.0000000000;85.2054443359
619.5000000000;85.2147293091
620.0000000000;85.2077255249
620.5000000000;85.2414932251
621.0000000000;85.3208312988
621.5000000000;85.4004058838
622.0000000000;85.4034729004
622.5000000000;85.3908767700
623.0000000000;85.4441833496
623.5000000000;85.5052566528
624.0000000000;85.5489501953
624.5000000000;85.6104431152
625.0000000000;85.6986465454
625.5000000000;85.7927780151
626.0000000000;85.8371353149
626.5000000000;85.8516845703
627.0000000000;85.9077224731
627.5000000000;85.9600448608
628.0000000000;85.9777984619
628.5000000000;86.0273056030
629.0000000000;86.1034774780
629.5000000000;86.1581497192
630.0000000000;86.2145919800
630.5000000000;86.2926330566
631.0000000000;86.3752441406
631.5000000000;86.4412460327
632.0000000000;86.4792785645
632.5000000000;86.5086593628
633.0000000000;86.5479965210
633.5000000000;86.6046981812
634.0000000000;86.6662216187
634.5000000000;86.7165756226
635.0000000000;86.7560882568
635.5000000000;86.7867507935
636.0000000000;86.8111801147
636.5000000000;86.8406143188
637.0000000000;86.8788833618
637.5000000000;86.9084396362
638.0000000000;86.9400939941
638.5000000000;86.9989852905
639.0000000000;87.0550613403
639.5000000000;87.0864562988
640.0000000000;87.1130752563
640.5000000000;87.1460952759
641.0000000000;87.1866073608
641.5000000000;87.2276382446
642.0000000000;87.2621765137
642.5000000000;87.2864608765
643.0000000000;87.2967071533
643.5000000000;87.2980041504
644.0000000000;87.3200607300
644.5000000000;87.3618087769
645.0000000000;87.3895721436
645.5000000000;87.4037246704
646.0000000000;87.4165420532
646.5000000000;87.4332885742
647.0000000000;87.4514007568
647.5000000000;87.4649887085
648.0000000000;87.4802856445
648.5000000000;87.4990921021
649.0000000000;87.5103454590
649.5000000000;87.5196380615
650.0000000000;87.5409317017
650.5000000000;87.5745239258
651.0000000000;87.6065673828
651.5000000000;87.6138458252
652.0000000000;87.6169433594
652.5000000000;87.6427307129
653.0000000000;87.6706008911
653.5000000000;87.6875991821
654.0000000000;87.7022094727
654.5000000000;87.7592086792
655.0000000000;87.8060989380
655.5000000000;87.6283416748
656.0000000000;87.2839660645
656.5000000000;86.4491882324
657.0000000000;85.7363204956
657.5000000000;87.1620635986
658.0000000000;88.1534042358
658.5000000000;87.9589385986
659.0000000000;87.9874191284
659.5000000000;88.1279983521
660.0000000000;88.1624755859
660.5000000000;88.1960525513
661.0000000000;88.2409973145
661.5000000000;88.2742080688
662.0000000000;88.3305053711
662.5000000000;88.3988647461
663.0000000000;88.4266738892
663.5000000000;88.4453582764
664.0000000000;88.4936676025
664.5000000000;88.5593719482
665.0000000000;88.6228637695
665.5000000000;88.6722412109
666.0000000000;88.7297515869
666.5000000000;88.8018951416
667.0000000000;88.8580780029
667.5000000000;88.8938827515
668.0000000000;88.9242935181
668.5000000000;88.9682312012
669.0000000000;89.0210189819
669.5000000000;89.0554122925
670.0000000000;89.0858764648
670.5000000000;89.1300964355
671.0000000000;89.1690216064
671.5000000000;89.2030029297
672.0000000000;89.2495040894
672.5000000000;89.2973175049
673.0000000000;89.3355102539
673.5000000000;89.3703994751
674.0000000000;89.4081268311
674.5000000000;89.4515304565
675.0000000000;89.4962158203
675.5000000000;89.5334320068
676.0000000000;89.5549316406
676.5000000000;89.5841369629
677.0000000000;89.6402587891
677.5000000000;89.6880798340
678.0000000000;89.7124633789
678.5000000000;89.7285156250
679.0000000000;89.7537765503
679.5000000000;89.7901916504
680.0000000000;89.8116378784
680.5000000000;89.8324050903
681.0000000000;89.8807754517
681.5000000000;89.9066390991
682.0000000000;89.8997879028
682.5000000000;89.9308624268
683.0000000000;89.9841003418
683.5000000000;90.0108184814
684.0000000000;90.0217285156
684.5000000000;90.0189361572
685.0000000000;89.9907455444
685.5000000000;89.9808425903
686.0000000000;90.0251541138
686.5000000000;90.0927886963
687.0000000000;90.1391220093
687.5000000000;90.1351165771
688.0000000000;90.1359558105
688.5000000000;90.1726379395
689.0000000000;90.2010955811
689.5000000000;90.2015686035
690.0000000000;90.1839675903
690.5000000000;90.1918182373
691.0000000000;90.2228393555
691.5000000000;90.2245254517
692.0000000000;90.2224121094
692.5000000000;90.2471694946
693.0000000000;90.2623977661
693.5000000000;90.2724685669
694.0000000000;90.3118820190
694.5000000000;90.3509826660
695.0000000000;90.3691635132
695.5000000000;90.3934860229
696.0000000000;90.4241943359
696.5000000000;90.4443511963
697.0000000000;90.4483795166
697.5000000000;90.4533081055
698.0000000000;90.4927978516
698.5000000000;90.5466232300
699.0000000000;90.5860366821
699.5000000000;90.6233825684
700.0000000000;90.6581344604
700.5000000000;90.6799926758
701.0000000000;90.7145080566
701.5000000000;90.7674560547
702.0000000000;90.7961502075
702.5000000000;90.8080749512
703.0000000000;90.8368377686
703.5000000000;90.8863296509
704.0000000000;90.9415740967
704.5000000000;90.9783401489
705.0000000000;91.0103149414
705.5000000000;91.0502395630
706.0000000000;91.0696640015
706.5000000000;91.0721282959
707.0000000000;91.0885925293
707.5000000000;91.1237335205
708.0000000000;91.1727828979
708.5000000000;91.2284774780
709.0000000000;91.2888183594
709.5000000000;91.3503494263
710.0000000000;91.3905563354
710.5000000000;91.4124832153
711.0000000000;91.4488677979
711.5000000000;91.4937133789
712.0000000000;91.5313720703
712.5000000000;91.5645065308
713.0000000000;91.5956497192
713.5000000000;91.6267318726
714.0000000000;91.6672744751
714.5000000000;91.7159881592
715.0000000000;91.7528991699
715.5000000000;91.7806777954
716.0000000000;91.8159942627
716.5000000000;91.8723602295
717.0000000000;91.9379501343
717.5000000000;91.9814147949
718.0000000000;92.0148391724
718.5000000000;92.0564346313
719.0000000000;92.1009521484
719.5000000000;92.1478576660
720.0000000000;92.2001571655
720.5000000000;92.2485580444
721.0000000000;92.2882003784
721.5000000000;92.3259658813
722.0000000000;92.3677978516
722.5000000000;92.4132156372
723.0000000000;92.4471511841
723.5000000000;92.4706039429
724.0000000000;92.5002746582
724.5000000000;92.5322265625
725.0000000000;92.5581817627
725.5000000000;92.5768814087
726.0000000000;92.5908203125
726.5000000000;92.6069641113
727.0000000000;92.6409683228
727.5000000000;92.6921310425
728.0000000000;92.7381134033
728.5000000000;92.7696304321
729.0000000000;92.7907028198
729.5000000000;92.8202590942
730.0000000000;92.8542098999
730.5000000000;92.8697052002
731.0000000000;92.8629531860
731.5000000000;92.8572463989
732.0000000000;92.9026031494
732.5000000000;92.9741134644
733.0000000000;93.0162658691
733.5000000000;93.0268402100
734.0000000000;93.0211105347
734.5000000000;93.0183792114
735.0000000000;93.0182266235
735.5000000000;93.0240554810
736.0000000000;93.0600891113
736.5000000000;93.1070556641
737.0000000000;93.1268692017
737.5000000000;93.1495208740
738.0000000000;93.1931076050
738.5000000000;93.2332305908
739.0000000000;93.2457046509
739.5000000000;93.2253494263
740.0000000000;93.2066497803
740.5000000000;93.2148590088
741.0000000000;93.2545471191
741.5000000000;93.2911300659
742.0000000000;93.3058929443
742.5000000000;93.3282394409
743.0000000000;93.3581237793
743.5000000000;93.3768768311
744.0000000000;93.3772125244
744.5000000000;93.3736038208
745.0000000000;93.3945693970
745.5000000000;93.4208526611
746.0000000000;93.4309539795
746.5000000000;93.4395294189
747.0000000000;93.4445877075
747.5000000000;93.4379272461
748.0000000000;93.4489822388
748.5000000000;93.4797210693
749.0000000000;93.4892807007
749.5000000000;93.4999313354
750.0000000000;93.5308914185
750.5000000000;93.5179290771
751.0000000000;93.4935760498
751.5000000000;93.5540008545
752.0000000000;93.6202468872
752.5000000000;93.6216659546
753.0000000000;93.5936203003
753.5000000000;93.5699615479
754.0000000000;93.5740814209
754.5000000000;93.6211929321
755.0000000000;93.6848449707
755.5000000000;93.7057952881
756.0000000000;93.6910705566
756.5000000000;93.6674575806
757.0000000000;93.6496429443
757.5000000000;93.6504287720
758.0000000000;93.6756515503
758.5000000000;93.7069244385
759.0000000000;93.7384185791
759.5000000000;93.7831268311
760.0000000000;93.8337478638
760.5000000000;93.8737564087
761.0000000000;93.8877182007
761.5000000000;93.9131698608
762.0000000000;93.9996871948
762.5000000000;94.0622940063
763.0000000000;94.0566864014
763.5000000000;94.0476303101
764.0000000000;94.0646820068
764.5000000000;94.1030044556
765.0000000000;94.1271362305
765.5000000000;94.1562500000
766.0000000000;94.2410888672
766.5000000000;94.3259124756
767.0000000000;94.3639450073
767.5000000000;94.3765411377
768.0000000000;94.3699722290
768.5000000000;94.3457260132
769.0000000000;94.3251495361
769.5000000000;94.3461532593
770.0000000000;94.4418869019
770.5000000000;94.5320205688
771.0000000000;94.5584411621
771.5000000000;94.5818023682
772.0000000000;94.6341476440
772.5000000000;94.7073364258
773.0000000000;94.7548141479
773.5000000000;94.7667617798
774.0000000000;94.7792587280
774.5000000000;94.8141174316
775.0000000000;94.8708419800
775.5000000000;94.9181518555
776.0000000000;94.9404373169
776.5000000000;94.9440002441
777.0000000000;94.9625015259
777.5000000000;95.0029830933
778.0000000000;95.0348129272
778.5000000000;95.0498886108
779.0000000000;95.0513610840
779.5000000000;95.0437927246
780.0000000000;95.0484848022
780.5000000000;95.0850143433
781.0000000000;95.1142120361
781.5000000000;95.1243743896
782.0000000000;95.1555557251
782.5000000000;95.1927490234
783.0000000000;95.2109680176
783.5000000000;95.2277908325
784.0000000000;95.2602920532
784.5000000000;95.3123550415
785.0000000000;95.3523483276
785.5000000000;95.3680496216
786.0000000000;95.3887405396
786.5000000000;95.4216613770
787.0000000000;95.4571838379
787.5000000000;95.4781265259
788.0000000000;95.4827957153
788.5000000000;95.4825668335
789.0000000000;95.4832916260
789.5000000000;95.4923019409
790.0000000000;95.5191955566
790.5000000000;95.5481719971
791.0000000000;95.5642471313
791.5000000000;95.5897445679
792.0000000000;95.6232223511
792.5000000000;95.6428909302
793.0000000000;95.6646423340
793.5000000000;95.6824645996
794.0000000000;95.6481018066
794.5000000000;95.6087799072
795.0000000000;95.6306991577
795.5000000000;95.6860198975
796.0000000000;95.7426681519
796.5000000000;95.7809295654
797.0000000000;95.7920303345
797.5000000000;95.7845611572
798.0000000000;95.7848052979
798.5000000000;95.7879867554
799.0000000000;95.7837982178
799.5000000000;95.7975387573
800.0000000000;95.8276367188
800.5000000000;95.8457717896
801.0000000000;95.8510055542
801.5000000000;95.8512268066
802.0000000000;95.8543853760
802.5000000000;95.8768157959
803.0000000000;95.9205245972
803.5000000000;95.9363327026
804.0000000000;95.9283142090
804.5000000000;95.9472427368
805.0000000000;95.9741821289
805.5000000000;95.9785537720
806.0000000000;95.9535827637
806.5000000000;95.9315795898
807.0000000000;95.9459457397
807.5000000000;95.9738998413
808.0000000000;95.9939117432
808.5000000000;96.0005035400
809.0000000000;96.0122528076
809.5000000000;96.0393371582
810.0000000000;96.0650711060
810.5000000000;96.0698013306
811.0000000000;96.0509719849
811.5000000000;96.0503158569
812.0000000000;96.0752792358
812.5000000000;96.0974197388
813.0000000000;96.1060333252
813.5000000000;96.1023788452
814.0000000000;96.0978393555
814.5000000000;96.1132278442
815.0000000000;96.1501770020
815.5000000000;96.1487655640
816.0000000000;96.1208648682
816.5000000000;96.1339645386
817.0000000000;96.1651077271
817.5000000000;96.1790695190
818.0000000000;96.1690292358
818.5000000000;96.1707305908
819.0000000000;96.2109069824
819.5000000000;96.2401046753
820.0000000000;96.2337951660
820.5000000000;96.2068939209
821.0000000000;96.2036819458
821.5000000000;96.2339553833
822.0000000000;96.2525634766
822.5000000000;96.2545928955
823.0000000000;96.2520980835
823.5000000000;96.2447052002
824.0000000000;96.2489471436
824.5000000000;96.2836914063
825.0000000000;96.3133316040
825.5000000000;96.3195877075
826.0000000000;96.3231506348
826.5000000000;96.3218307495
827.0000000000;96.3117904663
827.5000000000;96.3106613159
828.0000000000;96.3290100098
828.5000000000;96.3629150391
829.0000000000;96.3818359375
829.5000000000;96.3894653320
830.0000000000;96.4270706177
830.5000000000;96.4466018677
831.0000000000;96.4203872681
831.5000000000;96.4314346313
832.0000000000;96.4500350952
832.5000000000;96.4071884155
833.0000000000;96.3959274292
833.5000000000;96.4422454834
834.0000000000;96.4657287598
834.5000000000;96.4372024536
835.0000000000;96.3867950439
835.5000000000;96.4028472900
836.0000000000;96.4525070190
836.5000000000;96.4610900879
837.0000000000;96.4727554321
837.5000000000;96.4940567017
838.0000000000;96.4851684570
838.5000000000;96.4844207764
839.0000000000;96.5072784424
839.5000000000;96.4984970093
840.0000000000;96.4878158569
840.5000000000;96.5166015625
841.0000000000;96.5264282227
841.5000000000;96.5092849731
842.0000000000;96.5065841675
842.5000000000;96.5123977661
843.0000000000;96.5211868286
843.5000000000;96.5437164307
844.0000000000;96.5588378906
844.5000000000;96.5514221191
845.0000000000;96.5538024902
845.5000000000;96.5654678345
846.0000000000;96.5658340454
846.5000000000;96.5736236572
847.0000000000;96.5872497559
847.5000000000;96.5762023926
848.0000000000;96.5655593872
848.5000000000;96.5766525269
849.0000000000;96.5795593262
849.5000000000;96.5732574463
850.0000000000;96.5731353760
850.5000000000;96.5725402832
851.0000000000;96.5639419556
851.5000000000;96.5473175049
852.0000000000;96.5417404175
852.5000000000;96.5415802002
853.0000000000;96.5008239746
853.5000000000;96.4637527466
854.0000000000;96.4817733765
854.5000000000;96.4888992310
855.0000000000;96.4867401123
855.5000000000;96.5288314819
856.0000000000;96.5434875488
856.5000000000;96.5091323853
857.0000000000;96.5116653442
857.5000000000;96.5272140503
858.0000000000;96.5162734985
858.5000000000;96.5220489502
859.0000000000;96.5276870728
859.5000000000;96.4943847656
860.0000000000;96.4917678833
860.5000000000;96.5328903198
861.0000000000;96.5493392944
861.5000000000;96.5512847900
862.0000000000;96.5568771362
862.5000000000;96.5449066162
863.0000000000;96.5271224976
863.5000000000;96.5237884521
864.0000000000;96.5158767700
864.5000000000;96.5081787109
865.0000000000;96.5230102539
865.5000000000;96.5272445679
866.0000000000;96.5097198486
866.5000000000;96.5099792480
867.0000000000;96.5219039917
867.5000000000;96.5255355835
868.0000000000;96.5237350464
868.5000000000;96.5239562988
869.0000000000;96.5323333740
869.5000000000;96.5457916260
870.0000000000;96.5562438965
870.5000000000;96.5542602539
871.0000000000;96.5414428711
871.5000000000;96.5311965942
872.0000000000;96.5439529419
872.5000000000;96.5306396484
873.0000000000;96.4604034424
873.5000000000;96.4616546631
874.0000000000;96.5282897949
874.5000000000;96.5388107300
875.0000000000;96.5200958252
875.5000000000;96.5221939087
876.0000000000;96.5576019287
876.5000000000;96.5797424316
877.0000000000;96.5594024658
877.5000000000;96.5562286377
878.0000000000;96.5661010742
878.5000000000;96.5452575684
879.0000000000;96.4987106323
879.5000000000;96.4743576050
880.0000000000;96.5280914307
880.5000000000;96.5693969727
881.0000000000;96.5542678833
881.5000000000;96.5896453857
882.0000000000;96.6388473511
882.5000000000;96.6277008057
883.0000000000;96.6066818237
883.5000000000;96.5897445679
884.0000000000;96.5637054443
884.5000000000;96.5908050537
885.0000000000;96.6624298096
885.5000000000;96.6742935181
886.0000000000;96.6443328857
886.5000000000;96.6259231567
887.0000000000;96.6372604370
887.5000000000;96.6354751587
888.0000000000;96.5891418457
888.5000000000;96.5974655151
889.0000000000;96.6531448364
889.5000000000;96.6551895142
890.0000000000;96.6377487183
890.5000000000;96.6475524902
891.0000000000;96.6859436035
891.5000000000;96.6947326660
892.0000000000;96.6553649902
892.5000000000;96.6733779907
893.0000000000;96.7273712158
893.5000000000;96.7303085327
894.0000000000;96.7011413574
894.5000000000;96.6873168945
895.0000000000;96.7236404419
895.5000000000;96.7454757690
896.0000000000;96.7185745239
896.5000000000;96.6988754272
897.0000000000;96.7263565063
897.5000000000;96.7857894897
898.0000000000;96.7710800171
898.5000000000;96.7008895874
899.0000000000;96.6700973511
899.5000000000;96.6910705566
900.0000000000;96.7484283447
900.5000000000;96.8139648438
901.0000000000;96.8527984619
901.5000000000;96.8426895142
902.0000000000;96.7913436890
902.5000000000;96.7724227905
903.0000000000;96.8298416138
903.5000000000;96.8613433838
904.0000000000;96.8352050781
904.5000000000;96.7975158691
905.0000000000;96.8126831055
905.5000000000;96.8666305542
906.0000000000;96.8720092773
906.5000000000;96.8502197266
907.0000000000;96.8452453613
907.5000000000;96.8676071167
908.0000000000;96.8857269287
908.5000000000;96.8774414063
909.0000000000;96.8889541626
909.5000000000;96.9210281372
910.0000000000;96.9388427734
910.5000000000;96.9361419678
911.0000000000;96.9192199707
911.5000000000;96.9034729004
912.0000000000;96.9197387695
912.5000000000;96.9743881226
913.0000000000;97.0248641968
913.5000000000;97.0246276855
914.0000000000;96.9777755737
914.5000000000;96.9978256226
915.0000000000;97.0400772095
915.5000000000;96.9866638184
916.0000000000;96.9196624756
916.5000000000;96.9153366089
917.0000000000;96.9787597656
917.5000000000;97.0256881714
918.0000000000;97.0272140503
918.5000000000;97.0718383789
919.0000000000;97.1222229004
919.5000000000;97.1256408691
920.0000000000;97.1497039795
920.5000000000;97.1803283691
921.0000000000;97.1637954712
921.5000000000;97.1513366699
922.0000000000;97.1513595581
922.5000000000;97.1236801147
923.0000000000;97.1243972778
923.5000000000;97.1841049194
924.0000000000;97.2500839233
924.5000000000;97.2716293335
925.0000000000;97.2417221069
925.5000000000;97.2293624878
926.0000000000;97.2354888916
926.5000000000;97.2241058350
927.0000000000;97.2076492310
927.5000000000;97.2213439941
928.0000000000;97.2843017578
928.5000000000;97.2872314453
929.0000000000;97.2339477539
929.5000000000;97.2933273315
930.0000000000;97.3726119995
930.5000000000;97.3734512329
931.0000000000;97.3943481445
931.5000000000;97.3959732056
932.0000000000;97.3207244873
932.5000000000;97.3152465820
933.0000000000;97.3678741455
933.5000000000;97.3619918823
934.0000000000;97.4194793701
934.5000000000;97.4969635010
935.0000000000;97.3648223877
935.5000000000;97.2976608276
936.0000000000;97.4570617676
936.5000000000;97.5264053345
937.0000000000;97.4849090576
937.5000000000;97.4606628418
938.0000000000;97.4968795776
938.5000000000;97.5436172485
939.0000000000;97.5287780762
939.5000000000;97.5077590942
940.0000000000;97.5320358276
940.5000000000;97.6007690430
941.0000000000;97.6172866821
941.5000000000;97.5839920044
942.0000000000;97.6483230591
942.5000000000;97.6887969971
943.0000000000;97.6087112427
943.5000000000;97.5930099487
944.0000000000;97.6524887085
944.5000000000;97.6944198608
945.0000000000;97.6984176636
945.5000000000;97.6856002808
946.0000000000;97.7037124634
946.5000000000;97.8006820679
947.0000000000;97.8997726440
947.5000000000;97.8333663940
948.0000000000;97.7671127319
948.5000000000;97.8215866089
949.0000000000;97.8582763672
949.5000000000;97.8538513184
950.0000000000;97.8536987305
950.5000000000;97.8941421509
951.0000000000;97.9567718506
951.5000000000;97.9886474609
952.0000000000;97.9546508789
952.5000000000;97.9537124634
953.0000000000;98.1183471680
953.5000000000;98.1730041504
954.0000000000;98.0751800537
954.5000000000;98.1630554199
955.0000000000;98.2816925049
955.5000000000;98.2445907593
956.0000000000;98.1748886108
956.5000000000;98.1855850220
957.0000000000;98.2818069458
957.5000000000;98.2812118530
958.0000000000;98.2653503418
958.5000000000;98.4121170044
959.0000000000;98.4980239868
959.5000000000;98.4213180542
960.0000000000;98.3045654297
960.5000000000;98.3447036743
961.0000000000;98.5307388306
961.5000000000;98.5885162354
962.0000000000;98.5196914673
962.5000000000;98.4463195801
963.0000000000;98.4738464355
963.5000000000;98.5726318359
964.0000000000;98.6437301636
964.5000000000;98.6142272949
965.0000000000;98.5960998535
965.5000000000;98.7237396240
966.0000000000;98.7681503296
966.5000000000;98.6784820557
967.0000000000;98.6196517944
967.5000000000;98.5903167725
968.0000000000;98.6047744751
968.5000000000;98.7219619751
969.0000000000;98.7336502075
969.5000000000;98.5779190063
970.0000000000;98.5866394043
970.5000000000;98.6752929688
971.0000000000;98.6347885132
971.5000000000;98.5436477661
972.0000000000;98.5556182861
972.5000000000;98.7278366089
973.0000000000;98.7501907349
973.5000000000;98.6015701294
974.0000000000;98.5491714478
974.5000000000;98.6375503540
975.0000000000;98.7557907104
975.5000000000;98.7316436768
976.0000000000;98.7057418823
976.5000000000;98.7886199951
977.0000000000;98.8527526855
977.5000000000;98.7766723633
978.0000000000;98.5916061401
978.5000000000;98.5847778320
979.0000000000;98.6799926758
979.5000000000;98.6694030762
980.0000000000;98.6890640259
980.5000000000;98.7618026733
981.0000000000;98.7830047607
981.5000000000;98.7272644043
982.0000000000;98.6913909912
982.5000000000;98.8055572510
983.0000000000;98.8109741211
983.5000000000;98.6338272095
984.0000000000;98.5935211182
984.5000000000;98.6899719238
985.0000000000;98.7971649170
985.5000000000;98.8438034058
986.0000000000;98.8454437256
986.5000000000;98.8772659302
987.0000000000;99.0245437622
987.5000000000;99.0473937988
988.0000000000;98.7512283325
988.5000000000;98.7909164429
989.0000000000;99.0997543335
989.5000000000;99.0127944946
990.0000000000;98.8439407349
990.5000000000;98.8355484009
991.0000000000;98.8631134033
991.5000000000;98.9540786743
992.0000000000;99.0597229004
992.5000000000;98.9765701294
993.0000000000;98.8849563599
993.5000000000;98.9609680176
994.0000000000;99.0280685425
994.5000000000;98.9931411743
995.0000000000;98.9065856934
995.5000000000;98.9686050415
996.0000000000;98.9928512573
996.5000000000;98.7248306274
997.0000000000;98.6597290039
997.5000000000;98.9135742188
998.0000000000;99.1391754150
998.5000000000;99.1591339111
999.0000000000;99.0388565063
999.5000000000;99.0195465088
1000.0000000000;99.0352783203
1000.5000000000;98.9562072754
1001.0000000000;98.7639617920
1001.5000000000;98.7280197144
1002.0000000000;98.9615936279
1002.5000000000;99.0842132568
1003.0000000000;99.1245498657
1003.5000000000;99.2644271851
1004.0000000000;99.4012756348
1004.5000000000;99.3709793091
1005.0000000000;99.1410446167
1005.5000000000;99.0957183838
1006.0000000000;99.2024078369
1006.5000000000;99.1318969727
1007.0000000000;99.1390533447
1007.5000000000;99.2827835083
1008.0000000000;99.3030700684
1008.5000000000;99.2793731689
1009.0000000000;99.2688827515
1009.5000000000;99.1796493530
1010.0000000000;99.1816024780
1010.5000000000;99.3341903687
1011.0000000000;99.3490753174
1011.5000000000;99.2398529053
1012.0000000000;99.1948242188
1012.5000000000;99.3674697876
1013.0000000000;99.5356063843
1013.5000000000;99.4114608765
1014.0000000000;99.1852340698
1014.5000000000;99.0950012207
1015.0000000000;99.2524719238
1015.5000000000;99.4372100830
1016.0000000000;99.5530929565
1016.5000000000;99.6521606445
1017.0000000000;99.6005401611
1017.5000000000;99.3935241699
1018.0000000000;99.2139511108
1018.5000000000;99.0989608765
1019.0000000000;99.0614318848
1019.5000000000;99.1417846680
