182.5000000000;0.9145055413
183.0000000000;0.9792439938
183.5000000000;1.0005472898
184.0000000000;0.9896536469
184.5000000000;1.0156753063
185.0000000000;1.0958627462
185.5000000000;1.1820551157
186.0000000000;1.2495007515
186.5000000000;1.4098807573
187.0000000000;1.7177399397
187.5000000000;1.9339611530
188.0000000000;2.0368759632
188.5000000000;2.1730043888
189.0000000000;2.3418009281
189.5000000000;2.4488036633
190.0000000000;2.5130641460
190.5000000000;2.5804142952
191.0000000000;2.6596019268
191.5000000000;2.7203893661
192.0000000000;2.7232146263
192.5000000000;2.6984915733
193.0000000000;2.7533137798
193.5000000000;2.8527946472
194.0000000000;2.8745145798
194.5000000000;2.8511822224
195.0000000000;2.8387105465
195.5000000000;2.8463699818
196.0000000000;2.8835084438
196.5000000000;2.9604768753
197.0000000000;2.9953753948
197.5000000000;2.9304714203
198.0000000000;2.9337148666
198.5000000000;3.0383889675
199.0000000000;3.0885410309
199.5000000000;3.0635697842
200.0000000000;3.0544815063
200.5000000000;3.0699636936
201.0000000000;3.1050035954
201.5000000000;3.1615762711
202.0000000000;3.2104246616
202.5000000000;3.2032992840
203.0000000000;3.2059395313
203.5000000000;3.2673923969
204.0000000000;3.2761857510
204.5000000000;3.2214827538
205.0000000000;3.2351999283
205.5000000000;3.2768261433
206.0000000000;3.2372007370
206.5000000000;3.2017362118
207.0000000000;3.2231121063
207.5000000000;3.2361330986
208.0000000000;3.2084631920
208.5000000000;3.1572287083
209.0000000000;3.1039121151
209.5000000000;3.0732152462
210.0000000000;3.1048529148
210.5000000000;3.1752755642
211.0000000000;3.1649324894
211.5000000000;3.1358473301
212.0000000000;3.1837801933
212.5000000000;3.1947202682
213.0000000000;3.1317417622
213.5000000000;3.1300315857
214.0000000000;3.1766498089
214.5000000000;3.1830487251
215.0000000000;3.1692800522
215.5000000000;3.1709976196
216.0000000000;3.1854295731
216.5000000000;3.2108786106
217.0000000000;3.2477447987
217.5000000000;3.2767539024
218.0000000000;3.2768042088
218.5000000000;3.2543442249
219.0000000000;3.2414073944
219.5000000000;3.2842848301
220.0000000000;3.3672525883
220.5000000000;3.4223115444
221.0000000000;3.3845832348
221.5000000000;3.3072865009
222.0000000000;3.3381698132
222.5000000000;3.4382629395
223.0000000000;3.4007899761
223.5000000000;3.3361485004
224.0000000000;3.3584713936
224.5000000000;3.3673837185
225.0000000000;3.3249471188
225.5000000000;3.3009393215
226.0000000000;3.3012022972
226.5000000000;3.3018684387
227.0000000000;3.2801311016
227.5000000000;3.2477264404
228.0000000000;3.2563769817
228.5000000000;3.2848300934
229.0000000000;3.2684752941
229.5000000000;3.2422270775
230.0000000000;3.2421820164
230.5000000000;3.2486808300
231.0000000000;3.2436954975
231.5000000000;3.2216393948
232.0000000000;3.2025854588
232.5000000000;3.2029194832
233.0000000000;3.2091827393
233.5000000000;3.2112822533
234.0000000000;3.2103960514
234.5000000000;3.2166328430
235.0000000000;3.2360851765
235.5000000000;3.2396566868
236.0000000000;3.2212314606
236.5000000000;3.2221596241
237.0000000000;3.2407269478
237.5000000000;3.2475192547
238.0000000000;3.2478079796
238.5000000000;3.2495977879
239.0000000000;3.2409026623
239.5000000000;3.2312474251
240.0000000000;3.2472765446
240.5000000000;3.2829480171
241.0000000000;3.3136670589
241.5000000000;3.3073968887
242.0000000000;3.2767498493
242.5000000000;3.2787487507
243.0000000000;3.3013098240
243.5000000000;3.3018887043
244.0000000000;3.2936365604
244.5000000000;3.2920274734
245.0000000000;3.2885446548
245.5000000000;3.2741916180
246.0000000000;3.2484929562
246.5000000000;3.2470629215
247.0000000000;3.2868757248
247.5000000000;3.2945189476
248.0000000000;3.2558202744
248.5000000000;3.2433648109
249.0000000000;3.2396681309
249.5000000000;3.2084341049
250.0000000000;3.2057793140
250.5000000000;3.2509348392
251.0000000000;3.2680039406
251.5000000000;3.2205665112
252.0000000000;3.1431407928
252.5000000000;3.1089041233
253.0000000000;3.1332690716
253.5000000000;3.1196491718
254.0000000000;3.0721597672
254.5000000000;3.0777688026
255.0000000000;3.0888423920
255.5000000000;3.0506002903
256.0000000000;3.0491032600
256.5000000000;3.0948548317
257.0000000000;3.0801992416
257.5000000000;3.0106086731
258.0000000000;2.9557783604
258.5000000000;2.9607145786
259.0000000000;3.0217938423
259.5000000000;3.0434882641
260.0000000000;3.0194118023
260.5000000000;3.0156204700
261.0000000000;3.0035874844
261.5000000000;2.9546575546
262.0000000000;2.8939788342
262.5000000000;2.8535089493
263.0000000000;2.8531148434
263.5000000000;2.8382697105
264.0000000000;2.7696862221
264.5000000000;2.7046606541
265.0000000000;2.6579351425
265.5000000000;2.6084496975
266.0000000000;2.5577313900
266.5000000000;2.5136871338
267.0000000000;2.4787681103
267.5000000000;2.4516768456
268.0000000000;2.4277348518
268.5000000000;2.4012932777
269.0000000000;2.3697617054
269.5000000000;2.3436930180
270.0000000000;2.3237819672
270.5000000000;2.2910096645
271.0000000000;2.2513620853
271.5000000000;2.2241568565
272.0000000000;2.2017853260
272.5000000000;2.1735768318
273.0000000000;2.1410756111
273.5000000000;2.1067180634
274.0000000000;2.0718390942
274.5000000000;2.0361163616
275.0000000000;1.9993174076
275.5000000000;1.9631904364
276.0000000000;1.9291716814
276.5000000000;1.8979355097
277.0000000000;1.8680518866
277.5000000000;1.8375281096
278.0000000000;1.8073312044
278.5000000000;1.7790528536
279.0000000000;1.7538951635
279.5000000000;1.7309195995
280.0000000000;1.7079657316
280.5000000000;1.6859555244
281.0000000000;1.6653922796
281.5000000000;1.6430484056
282.0000000000;1.6188770533
282.5000000000;1.5963610411
283.0000000000;1.5746350288
283.5000000000;1.5516618490
284.0000000000;1.5290768147
284.5000000000;1.5074580908
285.0000000000;1.4848800898
285.5000000000;1.4622701406
286.0000000000;1.4417901039
286.5000000000;1.4218839407
287.0000000000;1.4018369913
287.5000000000;1.3839571476
288.0000000000;1.3677325249
288.5000000000;1.3510683775
289.0000000000;1.3359669447
289.5000000000;1.3238627911
290.0000000000;1.3116985559
290.5000000000;1.2993676662
291.0000000000;1.2899945974
291.5000000000;1.2821696997
292.0000000000;1.2736103535
292.5000000000;1.2662463188
293.0000000000;1.2603800297
293.5000000000;1.2534190416
294.0000000000;1.2465640306
294.5000000000;1.2422704697
295.0000000000;1.2381150723
295.5000000000;1.2331176996
296.0000000000;1.2306630611
296.5000000000;1.2296063900
297.0000000000;1.2261353731
297.5000000000;1.2230014801
298.0000000000;1.2226554155
298.5000000000;1.2220301628
299.0000000000;1.2207288742
299.5000000000;1.2212523222
300.0000000000;1.2224991322
300.5000000000;1.2230364084
301.0000000000;1.2252138853
301.5000000000;1.2290430069
302.0000000000;1.2310936451
302.5000000000;1.2320508957
303.0000000000;1.2344666719
303.5000000000;1.2385617495
304.0000000000;1.2433034182
304.5000000000;1.2467222214
305.0000000000;1.2499451637
305.5000000000;1.2555226088
306.0000000000;1.2613240480
306.5000000000;1.2655827999
307.0000000000;1.2704627514
307.5000000000;1.2766138315
308.0000000000;1.2828302383
308.5000000000;1.2882689238
309.0000000000;1.2930459976
309.5000000000;1.2992367744
310.0000000000;1.3071483374
310.5000000000;1.3147145510
311.0000000000;1.3209501505
311.5000000000;1.3259429932
312.0000000000;1.3313518763
312.5000000000;1.3381135464
313.0000000000;1.3455866575
313.5000000000;1.3533653021
314.0000000000;1.3611465693
314.5000000000;1.3680418730
315.0000000000;1.3738219738
315.5000000000;1.3798817396
316.0000000000;1.3866201639
316.5000000000;1.3934375048
317.0000000000;1.4000126123
317.5000000000;1.4063746929
318.0000000000;1.4130747318
318.5000000000;1.4196959734
319.0000000000;1.4249308109
319.5000000000;1.4294831753
320.0000000000;1.4347167015
320.5000000000;1.4408868551
321.0000000000;1.4476894140
321.5000000000;1.4543024302
322.0000000000;1.4595391750
322.5000000000;1.4629824162
323.0000000000;1.4679708481
323.5000000000;1.4747778177
324.0000000000;1.4775987864
324.5000000000;1.4795126915
325.0000000000;1.4875966311
325.5000000000;1.4936704636
326.0000000000;1.4924348593
326.5000000000;1.4943126440
327.0000000000;1.5013953447
327.5000000000;1.5073460340
328.0000000000;1.5105535984
328.5000000000;1.5124254227
329.0000000000;1.5167137384
329.5000000000;1.5227477551
330.0000000000;1.5253360271
330.5000000000;1.5262900591
331.0000000000;1.5294274092
331.5000000000;1.5338600874
332.0000000000;1.5382308960
332.5000000000;1.5417898893
333.0000000000;1.5441373587
333.5000000000;1.5456560850
334.0000000000;1.5488928556
334.5000000000;1.5535860062
335.0000000000;1.5547211170
335.5000000000;1.5550632477
336.0000000000;1.5608813763
336.5000000000;1.5673416853
337.0000000000;1.5701901913
337.5000000000;1.5729980469
338.0000000000;1.5772056580
338.5000000000;1.5815864801
339.0000000000;1.5846362114
339.5000000000;1.5861471891
340.0000000000;1.5889711380
340.5000000000;1.5932836533
341.0000000000;1.5965954065
341.5000000000;1.6002979279
342.0000000000;1.6062577963
342.5000000000;1.6124483347
343.0000000000;1.6169279814
343.5000000000;1.6192827225
344.0000000000;1.6228228807
344.5000000000;1.6307176352
345.0000000000;1.6386944056
345.5000000000;1.6437801123
346.0000000000;1.6476764679
346.5000000000;1.6531845331
347.0000000000;1.6618973017
347.5000000000;1.6679558754
348.0000000000;1.6695221663
348.5000000000;1.6751533747
349.0000000000;1.6846154928
349.5000000000;1.6913362741
350.0000000000;1.6970876455
350.5000000000;1.7045091391
351.0000000000;1.7118211985
351.5000000000;1.7185606956
352.0000000000;1.7257639170
352.5000000000;1.7324135303
353.0000000000;1.7388609648
353.5000000000;1.7510199547
354.0000000000;1.7662221193
354.5000000000;1.7724776268
355.0000000000;1.7753055096
355.5000000000;1.7851674557
356.0000000000;1.7995762825
356.5000000000;1.8133158684
357.0000000000;1.8215173483
357.5000000000;1.8272397518
358.0000000000;1.8363326788
358.5000000000;1.8463875055
359.0000000000;1.8546638489
359.5000000000;1.8609619141
360.0000000000;1.8693011999
360.5000000000;1.8831229210
361.0000000000;1.8996922970
361.5000000000;1.9184465408
362.0000000000;1.9341862202
362.5000000000;1.9454567432
363.0000000000;1.9552416801
363.5000000000;1.9606002569
364.0000000000;1.9628888369
364.5000000000;1.9766672850
365.0000000000;1.9972289801
365.5000000000;2.0026741028
366.0000000000;2.0064122677
366.5000000000;2.0256891251
367.0000000000;2.0452075005
367.5000000000;2.0566959381
368.0000000000;2.0666644573
368.5000000000;2.0764846802
369.0000000000;2.0859413147
369.5000000000;2.0995318890
370.0000000000;2.1172313690
370.5000000000;2.1309006214
371.0000000000;2.1382234097
371.5000000000;2.1421051025
372.0000000000;2.1478476524
372.5000000000;2.1582009792
373.0000000000;2.1708452702
373.5000000000;2.1852684021
374.0000000000;2.2017037868
374.5000000000;2.2159962654
375.0000000000;2.2257571220
375.5000000000;2.2348554134
376.0000000000;2.2436563969
376.5000000000;2.2502779961
377.0000000000;2.2605850697
377.5000000000;2.2758531570
378.0000000000;2.2817509174
378.5000000000;2.2799587250
379.0000000000;2.2870304585
379.5000000000;2.3045854568
380.0000000000;2.3230061531
380.5000000000;2.3177714348
381.0000000000;2.3040895462
381.5000000000;2.3314008713
382.0000000000;2.3693008423
382.5000000000;2.3637290001
383.0000000000;2.3468213081
383.5000000000;2.3396735191
384.0000000000;2.3345398903
384.5000000000;2.3375294209
385.0000000000;2.3559749126
385.5000000000;2.3730421066
386.0000000000;2.3761186600
386.5000000000;2.3702709675
387.0000000000;2.3698515892
387.5000000000;2.3857061863
388.0000000000;2.3971228600
388.5000000000;2.3937575817
389.0000000000;2.3951656818
389.5000000000;2.3919022083
390.0000000000;2.3646764755
390.5000000000;2.3537080288
391.0000000000;2.3775150776
391.5000000000;2.3915240765
392.0000000000;2.3852348328
392.5000000000;2.3805420399
393.0000000000;2.3732624054
393.5000000000;2.3583254814
394.0000000000;2.3465106487
394.5000000000;2.3446435928
395.0000000000;2.3526670933
395.5000000000;2.3605346680
396.0000000000;2.3573110104
396.5000000000;2.3430292606
397.0000000000;2.3278503418
397.5000000000;2.3261752129
398.0000000000;2.3366818428
398.5000000000;2.3534536362
399.0000000000;2.3745875359
399.5000000000;2.3823227882
400.0000000000;2.3476426601
400.5000000000;2.3146209717
401.0000000000;2.3268475533
401.5000000000;2.3467760086
402.0000000000;2.3417148590
402.5000000000;2.3143849373
403.0000000000;2.2939450741
403.5000000000;2.3020575047
404.0000000000;2.3067920208
404.5000000000;2.2924299240
405.0000000000;2.2821552753
405.5000000000;2.2740740776
406.0000000000;2.2577929497
406.5000000000;2.2493062019
407.0000000000;2.2523324490
407.5000000000;2.2432503700
408.0000000000;2.2186133862
408.5000000000;2.1928935051
409.0000000000;2.1827704906
409.5000000000;2.1890203953
410.0000000000;2.1865801811
410.5000000000;2.1674139500
411.0000000000;2.1414968967
411.5000000000;2.1277852058
412.0000000000;2.1295304298
412.5000000000;2.1178629398
413.0000000000;2.0950162411
413.5000000000;2.0819149017
414.0000000000;2.0683751106
414.5000000000;2.0451834202
415.0000000000;2.0250270367
415.5000000000;2.0118405819
416.0000000000;1.9988379478
416.5000000000;1.9795860052
417.0000000000;1.9549512863
417.5000000000;1.9382715225
418.0000000000;1.9274678230
418.5000000000;1.9077620506
419.0000000000;1.8834161758
419.5000000000;1.8638539314
420.0000000000;1.8484640121
420.5000000000;1.8330575228
421.0000000000;1.8134120703
421.5000000000;1.7931305170
422.0000000000;1.7753566504
422.5000000000;1.7565174103
423.0000000000;1.7365156412
423.5000000000;1.7187423706
424.0000000000;1.7017077208
424.5000000000;1.6816240549
425.0000000000;1.6578015089
425.5000000000;1.6341930628
426.0000000000;1.6146681309
426.5000000000;1.5962769985
427.0000000000;1.5768654346
427.5000000000;1.5587439537
428.0000000000;1.5410397053
428.5000000000;1.5217180252
429.0000000000;1.5019429922
429.5000000000;1.4844768047
430.0000000000;1.4663089514
430.5000000000;1.4458879232
431.0000000000;1.4274061918
431.5000000000;1.4096695185
432.0000000000;1.3894354105
432.5000000000;1.3703855276
433.0000000000;1.3543399572
433.5000000000;1.3379979134
434.0000000000;1.3209702969
434.5000000000;1.3023089170
435.0000000000;1.2833763361
435.5000000000;1.2672741413
436.0000000000;1.2514033318
436.5000000000;1.2346869707
437.0000000000;1.2184809446
437.5000000000;1.2028033733
438.0000000000;1.1873171329
438.5000000000;1.1716083288
439.0000000000;1.1556017399
439.5000000000;1.1396157742
440.0000000000;1.1244715452
440.5000000000;1.1101995707
441.0000000000;1.0953732729
441.5000000000;1.0811362267
442.0000000000;1.0676449537
442.5000000000;1.0534274578
443.0000000000;1.0388488770
443.5000000000;1.0246722698
444.0000000000;1.0112352371
444.5000000000;0.9984399080
445.0000000000;0.9857741594
445.5000000000;0.9728586674
446.0000000000;0.9600834846
446.5000000000;0.9477328658
447.0000000000;0.9354737997
447.5000000000;0.9229408503
448.0000000000;0.9104243517
448.5000000000;0.8987600207
449.0000000000;0.8878564239
449.5000000000;0.8766866922
450.0000000000;0.8651276827
450.5000000000;0.8535680771
451.0000000000;0.8425219655
451.5000000000;0.8319335580
452.0000000000;0.8210445642
452.5000000000;0.8103086948
453.0000000000;0.8003527522
453.5000000000;0.7905858755
454.0000000000;0.7805697322
454.5000000000;0.7703328133
455.0000000000;0.7602640986
455.5000000000;0.7507015467
456.0000000000;0.7413763404
456.5000000000;0.7320594788
457.0000000000;0.7228575945
457.5000000000;0.7139208913
458.0000000000;0.7052862644
458.5000000000;0.6968097091
459.0000000000;0.6880782247
459.5000000000;0.6790841818
460.0000000000;0.6702447534
460.5000000000;0.6617200375
461.0000000000;0.6531812549
461.5000000000;0.6447919011
462.0000000000;0.6368352175
462.5000000000;0.6291724443
463.0000000000;0.6219819784
463.5000000000;0.6147853732
464.0000000000;0.6070075035
464.5000000000;0.5994989872
465.0000000000;0.5924043059
465.5000000000;0.5850183964
466.0000000000;0.5775936842
466.5000000000;0.5704440475
467.0000000000;0.5632179379
467.5000000000;0.5559735894
468.0000000000;0.5490885973
468.5000000000;0.5426191092
469.0000000000;0.5361154675
469.5000000000;0.5290970802
470.0000000000;0.5220085382
470.5000000000;0.5155785680
471.0000000000;0.5094955564
471.5000000000;0.5033836365
472.0000000000;0.4974032342
472.5000000000;0.4916031957
473.0000000000;0.4859429896
473.5000000000;0.4802720845
474.0000000000;0.4742854238
474.5000000000;0.4681876898
475.0000000000;0.4623701274
475.5000000000;0.4568671584
476.0000000000;0.4515871704
476.5000000000;0.4464274347
477.0000000000;0.4412861764
477.5000000000;0.4360204637
478.0000000000;0.4306520522
478.5000000000;0.4256044328
479.0000000000;0.4208384454
479.5000000000;0.4159172773
480.0000000000;0.4109707475
480.5000000000;0.4062017202
481.0000000000;0.4016307294
481.5000000000;0.3972059488
482.0000000000;0.3926554620
482.5000000000;0.3881120980
483.0000000000;0.3839227259
483.5000000000;0.3796535134
484.0000000000;0.3753470182
484.5000000000;0.3720693290
485.0000000000;0.3681897521
485.5000000000;0.3625759780
486.0000000000;0.3591059148
486.5000000000;0.3576670587
487.0000000000;0.3541409373
487.5000000000;0.3482028842
488.0000000000;0.3437308967
488.5000000000;0.3404085934
489.0000000000;0.3366732597
489.5000000000;0.3330447972
490.0000000000;0.3297469616
490.5000000000;0.3263601065
491.0000000000;0.3228580952
491.5000000000;0.3194144368
492.0000000000;0.3161598444
492.5000000000;0.3131075203
493.0000000000;0.3101255894
493.5000000000;0.3070966899
494.0000000000;0.3038643897
494.5000000000;0.3004726171
495.0000000000;0.2972096205
495.5000000000;0.2943279445
496.0000000000;0.2915966213
496.5000000000;0.2888501287
497.0000000000;0.2862183750
497.5000000000;0.2835648656
498.0000000000;0.2808008194
498.5000000000;0.2783205807
499.0000000000;0.2761767805
499.5000000000;0.2736583352
500.0000000000;0.2707928717
500.5000000000;0.2682785988
501.0000000000;0.2660598159
501.5000000000;0.2638508677
502.0000000000;0.2614412308
502.5000000000;0.2589204311
503.0000000000;0.2566880882
503.5000000000;0.2545949221
504.0000000000;0.2523764670
504.5000000000;0.2501169741
505.0000000000;0.2479732633
505.5000000000;0.2460256517
506.0000000000;0.2440012246
506.5000000000;0.2417686433
507.0000000000;0.2397112250
507.5000000000;0.2378563136
508.0000000000;0.2359833419
508.5000000000;0.2340754271
509.0000000000;0.2321138084
509.5000000000;0.2301536500
510.0000000000;0.2283208519
510.5000000000;0.2266705632
511.0000000000;0.2250122577
511.5000000000;0.2232414037
512.0000000000;0.2215110809
512.5000000000;0.2198112607
513.0000000000;0.2180441022
513.5000000000;0.2162360400
514.0000000000;0.2144694924
514.5000000000;0.2128828317
515.0000000000;0.2113657892
515.5000000000;0.2097060829
516.0000000000;0.2081009299
516.5000000000;0.2066461295
517.0000000000;0.2051086575
517.5000000000;0.2035473287
518.0000000000;0.2021602690
518.5000000000;0.2007557452
519.0000000000;0.1992237568
519.5000000000;0.1977596581
520.0000000000;0.1963658482
520.5000000000;0.1949257255
521.0000000000;0.1935168207
521.5000000000;0.1921926290
522.0000000000;0.1908326000
522.5000000000;0.1894290596
523.0000000000;0.1880689859
523.5000000000;0.1867155135
524.0000000000;0.1853585094
524.5000000000;0.1841043532
525.0000000000;0.1829378605
525.5000000000;0.1817670912
526.0000000000;0.1805674285
526.5000000000;0.1793611944
527.0000000000;0.1782025099
527.5000000000;0.1770647466
528.0000000000;0.1758968532
528.5000000000;0.1747383773
529.0000000000;0.1735985726
529.5000000000;0.1724080741
530.0000000000;0.1712406874
530.5000000000;0.1701950878
531.0000000000;0.1691173464
531.5000000000;0.1679526865
532.0000000000;0.1668440253
532.5000000000;0.1658023596
533.0000000000;0.1647848040
533.5000000000;0.1638189256
534.0000000000;0.1628768891
534.5000000000;0.1618660837
535.0000000000;0.1608229429
535.5000000000;0.1598167270
536.0000000000;0.1587831676
536.5000000000;0.1577273160
537.0000000000;0.1567674130
537.5000000000;0.1558490694
538.0000000000;0.1548936963
538.5000000000;0.1540178657
539.0000000000;0.1531951874
539.5000000000;0.1522356123
540.0000000000;0.1511988491
540.5000000000;0.1502187103
541.0000000000;0.1492893100
541.5000000000;0.1484049559
542.0000000000;0.1475797594
542.5000000000;0.1467173398
543.0000000000;0.1457353085
543.5000000000;0.1447751969
544.0000000000;0.1439092457
544.5000000000;0.1430721879
545.0000000000;0.1422177553
545.5000000000;0.1413363963
546.0000000000;0.1404783577
546.5000000000;0.1396608204
547.0000000000;0.1388638169
547.5000000000;0.1381226033
548.0000000000;0.1374276429
548.5000000000;0.1366308033
549.0000000000;0.1357122660
549.5000000000;0.1347931921
550.0000000000;0.1339485943
550.5000000000;0.1331668943
551.0000000000;0.1323370188
551.5000000000;0.1314970702
552.0000000000;0.1307735741
552.5000000000;0.1300438941
553.0000000000;0.1292344481
553.5000000000;0.1285263896
554.0000000000;0.1278677732
554.5000000000;0.1270671934
555.0000000000;0.1262839288
555.5000000000;0.1256247014
556.0000000000;0.1249110177
556.5000000000;0.1241289377
557.0000000000;0.1233796775
557.5000000000;0.1226706654
558.0000000000;0.1219757348
558.5000000000;0.1212529540
559.0000000000;0.1205057651
559.5000000000;0.1197806895
560.0000000000;0.1191139519
560.5000000000;0.1184798405
561.0000000000;0.1177946404
561.5000000000;0.1171000972
562.0000000000;0.1164578572
562.5000000000;0.1157440320
563.0000000000;0.1149551645
563.5000000000;0.1142635569
564.0000000000;0.1136471257
564.5000000000;0.1130148172
565.0000000000;0.1123663038
565.5000000000;0.1116968989
566.0000000000;0.1109947339
566.5000000000;0.1103239581
567.0000000000;0.1097478196
567.5000000000;0.1092083678
568.0000000000;0.1087498665
568.5000000000;0.1085428670
569.0000000000;0.1084382460
569.5000000000;0.1081805006
570.0000000000;0.1076293290
570.5000000000;0.1068654805
571.0000000000;0.1062754840
571.5000000000;0.1062953696
572.0000000000;0.1065527350
572.5000000000;0.1058307886
573.0000000000;0.1044803336
573.5000000000;0.1036314592
574.0000000000;0.1033098027
574.5000000000;0.1032026485
575.0000000000;0.1029918790
575.5000000000;0.1025043800
576.0000000000;0.1016806737
576.5000000000;0.1004256904
577.0000000000;0.0991790220
577.5000000000;0.0991496444
578.0000000000;0.0993800461
578.5000000000;0.0981284901
579.0000000000;0.0960864499
579.5000000000;0.0946244970
580.0000000000;0.0946960822
580.5000000000;0.0956481546
581.0000000000;0.0963265300
581.5000000000;0.0970498472
582.0000000000;0.0976050943
582.5000000000;0.0970105156
583.0000000000;0.0956912041
583.5000000000;0.0948469341
584.0000000000;0.0947005451
584.5000000000;0.0947711542
585.0000000000;0.0943410024
585.5000000000;0.0935762823
586.0000000000;0.0928827524
586.5000000000;0.0922453627
587.0000000000;0.0916720182
587.5000000000;0.0912521333
588.0000000000;0.0909409821
588.5000000000;0.0905676261
589.0000000000;0.0898546502
589.5000000000;0.0888860449
590.0000000000;0.0880968049
590.5000000000;0.0875020698
591.0000000000;0.0869786516
591.5000000000;0.0865098611
592.0000000000;0.0860017315
592.5000000000;0.0853968859
593.0000000000;0.0849439278
593.5000000000;0.0846027508
594.0000000000;0.0838983059
594.5000000000;0.0830734745
595.0000000000;0.0826059207
595.5000000000;0.0820556283
596.0000000000;0.0811906010
596.5000000000;0.0804229751
597.0000000000;0.0798444599
597.5000000000;0.0792840794
598.0000000000;0.0785873011
598.5000000000;0.0778009593
599.0000000000;0.0772022530
599.5000000000;0.0767060593
600.0000000000;0.0761516243
600.5000000000;0.0757099986
601.0000000000;0.0754175857
601.5000000000;0.0750936195
602.0000000000;0.0745560229
602.5000000000;0.0738197565
603.0000000000;0.0732734799
603.5000000000;0.0729591027
604.0000000000;0.0725979954
604.5000000000;0.0720425472
605.0000000000;0.0713976398
605.5000000000;0.0709943175
606.0000000000;0.0707883239
606.5000000000;0.0705449805
607.0000000000;0.0702589080
607.5000000000;0.0699689463
608.0000000000;0.0697038099
608.5000000000;0.0694217980
609.0000000000;0.0690988675
609.5000000000;0.0689521804
610.0000000000;0.0689681396
610.5000000000;0.0688108951
611.0000000000;0.0685558617
611.5000000000;0.0683988556
612.0000000000;0.0682359561
612.5000000000;0.0680607855
613.0000000000;0.0680039003
613.5000000000;0.0679332241
614.0000000000;0.0677202940
614.5000000000;0.0675109476
615.0000000000;0.0673676953
615.5000000000;0.0672402456
616.0000000000;0.0670372024
616.5000000000;0.0667104870
617.0000000000;0.0663608611
617.5000000000;0.0661285147
618.0000000000;0.0660820752
618.5000000000;0.0660555437
619.0000000000;0.0659234896
619.5000000000;0.0657337457
620.0000000000;0.0655257031
620.5000000000;0.0652818382
621.0000000000;0.0648863763
621.5000000000;0.0644600764
622.0000000000;0.0643740371
622.5000000000;0.0643413514
623.0000000000;0.0639725029
623.5000000000;0.0635515973
624.0000000000;0.0632213205
624.5000000000;0.0628481731
625.0000000000;0.0623807199
625.5000000000;0.0618773215
626.0000000000;0.0615393221
626.5000000000;0.0613217466
627.0000000000;0.0609994270
627.5000000000;0.0606690124
628.0000000000;0.0604023300
628.5000000000;0.0600360222
629.0000000000;0.0596093722
629.5000000000;0.0592588522
630.0000000000;0.0588513762
630.5000000000;0.0583281517
631.0000000000;0.0578546040
631.5000000000;0.0574890338
632.0000000000;0.0571985170
632.5000000000;0.0569273122
633.0000000000;0.0566367619
633.5000000000;0.0563174188
634.0000000000;0.0559777021
634.5000000000;0.0556410737
635.0000000000;0.0553479716
635.5000000000;0.0551174060
636.0000000000;0.0549336262
636.5000000000;0.0547319427
637.0000000000;0.0544781610
637.5000000000;0.0542390049
638.0000000000;0.0539995842
638.5000000000;0.0536931418
639.0000000000;0.0534020178
639.5000000000;0.0531942099
640.0000000000;0.0530310646
640.5000000000;0.0528403334
641.0000000000;0.0525823906
641.5000000000;0.0523944572
642.0000000000;0.0522968285
642.5000000000;0.0521245077
643.0000000000;0.0519719496
643.5000000000;0.0519506596
644.0000000000;0.0518367030
644.5000000000;0.0515997857
645.0000000000;0.0514470860
645.5000000000;0.0513636880
646.0000000000;0.0512688570
646.5000000000;0.0511502735
647.0000000000;0.0510161258
647.5000000000;0.0508913100
648.0000000000;0.0508357584
648.5000000000;0.0508326851
649.0000000000;0.0507304966
649.5000000000;0.0505680181
650.0000000000;0.0504674539
650.5000000000;0.0503562018
651.0000000000;0.0502047054
651.5000000000;0.0500941537
652.0000000000;0.0500057451
652.5000000000;0.0499014035
653.0000000000;0.0498393290
653.5000000000;0.0496517234
654.0000000000;0.0492029265
654.5000000000;0.0500929989
655.0000000000;0.0522339493
655.5000000000;0.0505900122
656.0000000000;0.0500156954
656.5000000000;0.0533467233
657.0000000000;0.0571202636
657.5000000000;0.0515525043
658.0000000000;0.0473726727
658.5000000000;0.0480173193
659.0000000000;0.0477579385
659.5000000000;0.0470497012
660.0000000000;0.0467951223
660.5000000000;0.0465832502
661.0000000000;0.0463236794
661.5000000000;0.0460652895
662.0000000000;0.0456885062
662.5000000000;0.0452772193
663.0000000000;0.0450760759
663.5000000000;0.0449062847
664.0000000000;0.0445767455
664.5000000000;0.0441989489
665.0000000000;0.0438654087
665.5000000000;0.0435842536
666.0000000000;0.0432059616
666.5000000000;0.0427272543
667.0000000000;0.0424093083
667.5000000000;0.0421963483
668.0000000000;0.0419141054
668.5000000000;0.0416628160
669.0000000000;0.0414832607
669.5000000000;0.0412849672
670.0000000000;0.0410319529
670.5000000000;0.0407436825
671.0000000000;0.0405042507
671.5000000000;0.0403068587
672.0000000000;0.0400740355
672.5000000000;0.0398360789
673.0000000000;0.0396161452
673.5000000000;0.0393693782
674.0000000000;0.0391403213
674.5000000000;0.0389825925
675.0000000000;0.0387451500
675.5000000000;0.0384374186
676.0000000000;0.0383015499
676.5000000000;0.0382006355
677.0000000000;0.0379397161
677.5000000000;0.0377039500
678.0000000000;0.0375696756
678.5000000000;0.0374441482
679.0000000000;0.0372757874
679.5000000000;0.0370886512
680.0000000000;0.0370010883
680.5000000000;0.0369229093
681.0000000000;0.0366880521
681.5000000000;0.0365008116
682.0000000000;0.0364567749
682.5000000000;0.0363626964
683.0000000000;0.0361935720
683.5000000000;0.0360369496
684.0000000000;0.0359882228
684.5000000000;0.0360748805
685.0000000000;0.0362286381
685.5000000000;0.0362389050
686.0000000000;0.0359976105
686.5000000000;0.0357376523
687.0000000000;0.0355982073
687.5000000000;0.0355739407
688.0000000000;0.0355475545
688.5000000000;0.0354650430
689.0000000000;0.0354170315
689.5000000000;0.0354320630
690.0000000000;0.0354767181
690.5000000000;0.0354674384
691.0000000000;0.0354079939
691.5000000000;0.0353977382
692.0000000000;0.0354130194
692.5000000000;0.0353905223
693.0000000000;0.0353065990
693.5000000000;0.0351723731
694.0000000000;0.0350230895
694.5000000000;0.0349058621
695.0000000000;0.0348191150
695.5000000000;0.0346795917
696.0000000000;0.0345195830
696.5000000000;0.0344291665
697.0000000000;0.0344180129
697.5000000000;0.0343847610
698.0000000000;0.0341574997
698.5000000000;0.0338723436
699.0000000000;0.0336975940
699.5000000000;0.0335296690
700.0000000000;0.0333360769
700.5000000000;0.0331703201
701.0000000000;0.0330243744
701.5000000000;0.0328736007
702.0000000000;0.0327035710
702.5000000000;0.0325224511
703.0000000000;0.0323334001
703.5000000000;0.0320897065
704.0000000000;0.0318129063
704.5000000000;0.0315994918
705.0000000000;0.0314255953
705.5000000000;0.0312501453
706.0000000000;0.0311222542
706.5000000000;0.0310332384
707.0000000000;0.0309128780
707.5000000000;0.0307025332
708.0000000000;0.0304109342
708.5000000000;0.0301434360
709.0000000000;0.0298817288
709.5000000000;0.0295684207
710.0000000000;0.0293012820
710.5000000000;0.0291104596
711.0000000000;0.0289150383
711.5000000000;0.0287177917
712.0000000000;0.0285480414
712.5000000000;0.0283997692
713.0000000000;0.0282396302
713.5000000000;0.0280321855
714.0000000000;0.0278110132
714.5000000000;0.0276119243
715.0000000000;0.0274424292
715.5000000000;0.0272591095
716.0000000000;0.0270092413
716.5000000000;0.0267112553
717.0000000000;0.0264023822
717.5000000000;0.0261189584
718.0000000000;0.0258832220
718.5000000000;0.0256786998
719.0000000000;0.0254299268
719.5000000000;0.0251367912
720.0000000000;0.0248558465
720.5000000000;0.0246352702
721.0000000000;0.0244472772
721.5000000000;0.0241776295
722.0000000000;0.0239120349
722.5000000000;0.0237514824
723.0000000000;0.0235477369
723.5000000000;0.0233025327
724.0000000000;0.0231628213
724.5000000000;0.0230527259
725.0000000000;0.0229017679
725.5000000000;0.0227873437
726.0000000000;0.0226920135
726.5000000000;0.0225478765
727.0000000000;0.0223774817
727.5000000000;0.0221932698
728.0000000000;0.0219731927
728.5000000000;0.0217711031
729.0000000000;0.0216314327
729.5000000000;0.0214916673
730.0000000000;0.0213663001
730.5000000000;0.0213324744
731.0000000000;0.0213632360
731.5000000000;0.0213490147
732.0000000000;0.0211259518
732.5000000000;0.0208136588
733.0000000000;0.0206456464
733.5000000000;0.0206505973
734.0000000000;0.0207260493
734.5000000000;0.0207078215
735.0000000000;0.0206455495
735.5000000000;0.0205979832
736.0000000000;0.0204765927
736.5000000000;0.0203113500
737.0000000000;0.0201978497
737.5000000000;0.0200706813
738.0000000000;0.0199006684
738.5000000000;0.0197726581
739.0000000000;0.0197547972
739.5000000000;0.0198406670
740.0000000000;0.0198837463
740.5000000000;0.0198215768
741.0000000000;0.0196928754
741.5000000000;0.0195717718
742.0000000000;0.0195061732
742.5000000000;0.0194708984
743.0000000000;0.0194070488
743.5000000000;0.0192904565
744.0000000000;0.0192549657
744.5000000000;0.0192935150
745.0000000000;0.0192401670
745.5000000000;0.0191531107
746.0000000000;0.0191150326
746.5000000000;0.0190684125
747.0000000000;0.0190404058
747.5000000000;0.0190825015
748.0000000000;0.0190407019
748.5000000000;0.0188947115
749.0000000000;0.0188443530
749.5000000000;0.0188148301
750.0000000000;0.0187103376
750.5000000000;0.0187230147
751.0000000000;0.0187478326
751.5000000000;0.0184928868
752.0000000000;0.0182629675
752.5000000000;0.0182901323
753.0000000000;0.0183830746
753.5000000000;0.0184558891
754.0000000000;0.0184706431
754.5000000000;0.0182762723
755.0000000000;0.0179637149
755.5000000000;0.0178552568
756.0000000000;0.0179507751
756.5000000000;0.0181051660
757.0000000000;0.0181543082
757.5000000000;0.0180867221
758.0000000000;0.0179863889
758.5000000000;0.0179018248
759.0000000000;0.0177949555
759.5000000000;0.0175602119
760.0000000000;0.0172870178
760.5000000000;0.0170775056
761.0000000000;0.0168818329
761.5000000000;0.0166631099
762.0000000000;0.0164168775
762.5000000000;0.0161949005
763.0000000000;0.0160620697
763.5000000000;0.0160425920
764.0000000000;0.0160076283
764.5000000000;0.0158425793
765.0000000000;0.0156514160
765.5000000000;0.0154287778
766.0000000000;0.0150833325
766.5000000000;0.0147168459
767.0000000000;0.0144787421
767.5000000000;0.0144735007
768.0000000000;0.0145667437
768.5000000000;0.0145723037
769.0000000000;0.0145336119
769.5000000000;0.0143650435
770.0000000000;0.0138972457
770.5000000000;0.0134724537
771.0000000000;0.0133440895
771.5000000000;0.0132462708
772.0000000000;0.0129949031
772.5000000000;0.0126018571
773.0000000000;0.0124021107
773.5000000000;0.0123985885
774.0000000000;0.0122207822
774.5000000000;0.0119090350
775.0000000000;0.0116303889
775.5000000000;0.0114529226
776.0000000000;0.0113396645
776.5000000000;0.0112133808
777.0000000000;0.0110939909
777.5000000000;0.0109919701
778.0000000000;0.0108825732
778.5000000000;0.0107740164
779.0000000000;0.0107027851
779.5000000000;0.0107205575
780.0000000000;0.0106750177
780.5000000000;0.0103850346
781.0000000000;0.0101938490
781.5000000000;0.0102256937
782.0000000000;0.0101605272
782.5000000000;0.0100140302
783.0000000000;0.0099011045
783.5000000000;0.0097623589
784.0000000000;0.0095548984
784.5000000000;0.0093002049
785.0000000000;0.0091594514
785.5000000000;0.0091359830
786.0000000000;0.0089815548
786.5000000000;0.0087637482
787.0000000000;0.0086462833
787.5000000000;0.0085958056
788.0000000000;0.0085808290
788.5000000000;0.0085824672
789.0000000000;0.0085017346
789.5000000000;0.0083436780
790.0000000000;0.0082767364
790.5000000000;0.0082031190
791.0000000000;0.0079947701
791.5000000000;0.0078372527
792.0000000000;0.0077630100
792.5000000000;0.0076536094
793.0000000000;0.0075676870
793.5000000000;0.0075896042
794.0000000000;0.0077325492
794.5000000000;0.0078125829
795.0000000000;0.0076567214
795.5000000000;0.0074046161
796.0000000000;0.0071999594
796.5000000000;0.0071092341
797.0000000000;0.0070327725
797.5000000000;0.0069441088
798.0000000000;0.0069919713
798.5000000000;0.0070633697
799.0000000000;0.0069913454
799.5000000000;0.0069040791
800.0000000000;0.0068650693
800.5000000000;0.0068303491
801.0000000000;0.0067830393
801.5000000000;0.0067213047
802.0000000000;0.0066486006
802.5000000000;0.0065520639
803.0000000000;0.0064369990
803.5000000000;0.0063783643
804.0000000000;0.0063569476
804.5000000000;0.0062835780
805.0000000000;0.0062330016
805.5000000000;0.0062708850
806.0000000000;0.0063548074
806.5000000000;0.0064069810
807.0000000000;0.0063600633
807.5000000000;0.0062214141
808.0000000000;0.0060863080
808.5000000000;0.0060759899
809.0000000000;0.0060826512
809.5000000000;0.0060128812
810.0000000000;0.0059206015
810.5000000000;0.0058940789
811.0000000000;0.0059537631
811.5000000000;0.0059151826
812.0000000000;0.0057889968
812.5000000000;0.0057557244
813.0000000000;0.0057550208
813.5000000000;0.0057411622
814.0000000000;0.0057927594
814.5000000000;0.0057889656
815.0000000000;0.0056291413
815.5000000000;0.0055676866
816.0000000000;0.0055925804
816.5000000000;0.0054711257
817.0000000000;0.0053368518
817.5000000000;0.0052935798
818.0000000000;0.0052378806
818.5000000000;0.0051511093
819.0000000000;0.0050731190
819.5000000000;0.0050553442
820.0000000000;0.0051165028
820.5000000000;0.0052154195
821.0000000000;0.0051887520
821.5000000000;0.0050286967
822.0000000000;0.0049634273
822.5000000000;0.0049382336
823.0000000000;0.0048574405
823.5000000000;0.0048756669
824.0000000000;0.0049248235
824.5000000000;0.0048067193
825.0000000000;0.0046636374
825.5000000000;0.0046091946
826.0000000000;0.0046044551
826.5000000000;0.0046544219
827.0000000000;0.0047241375
827.5000000000;0.0046534878
828.0000000000;0.0044906605
828.5000000000;0.0043934551
829.0000000000;0.0042924182
829.5000000000;0.0041536978
830.0000000000;0.0040471992
830.5000000000;0.0039915973
831.0000000000;0.0039707720
831.5000000000;0.0039475085
832.0000000000;0.0039245845
832.5000000000;0.0039293086
833.0000000000;0.0039700600
833.5000000000;0.0039923913
834.0000000000;0.0039223712
834.5000000000;0.0039561107
835.0000000000;0.0041260738
835.5000000000;0.0040350910
836.0000000000;0.0038050835
836.5000000000;0.0037565732
837.0000000000;0.0037225527
837.5000000000;0.0036549219
838.0000000000;0.0036727395
838.5000000000;0.0036449004
839.0000000000;0.0035238306
839.5000000000;0.0035095296
840.0000000000;0.0035626781
840.5000000000;0.0035594075
841.0000000000;0.0035332190
841.5000000000;0.0035275414
842.0000000000;0.0035524499
842.5000000000;0.0035354467
843.0000000000;0.0034423273
843.5000000000;0.0033325886
844.0000000000;0.0033018030
844.5000000000;0.0033573040
845.0000000000;0.0032943862
845.5000000000;0.0031922187
846.0000000000;0.0032490711
846.5000000000;0.0031943449
847.0000000000;0.0029852483
847.5000000000;0.0029412771
848.0000000000;0.0029599627
848.5000000000;0.0029264190
849.0000000000;0.0030330976
849.5000000000;0.0031451592
850.0000000000;0.0030413778
850.5000000000;0.0029972747
851.0000000000;0.0030705049
851.5000000000;0.0030502833
852.0000000000;0.0030982315
852.5000000000;0.0033106937
853.0000000000;0.0034807040
853.5000000000;0.0035298890
854.0000000000;0.0034935435
854.5000000000;0.0034845606
855.0000000000;0.0034701210
855.5000000000;0.0033426806
856.0000000000;0.0033082552
856.5000000000;0.0034046588
857.0000000000;0.0033585271
857.5000000000;0.0033050615
858.0000000000;0.0033835783
858.5000000000;0.0033251147
859.0000000000;0.0032584914
859.5000000000;0.0034414304
860.0000000000;0.0034089496
860.5000000000;0.0031291042
861.0000000000;0.0031488792
861.5000000000;0.0033158946
862.0000000000;0.0033495182
862.5000000000;0.0032581417
863.0000000000;0.0032014125
863.5000000000;0.0032819107
864.0000000000;0.0032434859
864.5000000000;0.0030959584
865.0000000000;0.0030989393
865.5000000000;0.0032097399
866.0000000000;0.0032876879
866.5000000000;0.0032243116
867.0000000000;0.0031877966
867.5000000000;0.0032935529
868.0000000000;0.0032620560
868.5000000000;0.0031430095
869.0000000000;0.0031523530
869.5000000000;0.0030517362
870.0000000000;0.0028963538
870.5000000000;0.0030887306
871.0000000000;0.0033249166
871.5000000000;0.0032981150
872.0000000000;0.0031915046
872.5000000000;0.0032049431
873.0000000000;0.0033684755
873.5000000000;0.0033254174
874.0000000000;0.0031411166
874.5000000000;0.0031820245
875.0000000000;0.0031510086
875.5000000000;0.0029550511
876.0000000000;0.0029944754
876.5000000000;0.0031390046
877.0000000000;0.0031110328
877.5000000000;0.0029072717
878.0000000000;0.0027545353
878.5000000000;0.0029042375
879.0000000000;0.0032200783
879.5000000000;0.0033521247
880.0000000000;0.0029754408
880.5000000000;0.0026787284
881.0000000000;0.0027762670
881.5000000000;0.0026551222
882.0000000000;0.0024788170
882.5000000000;0.0025943296
883.0000000000;0.0026256181
883.5000000000;0.0025385711
884.0000000000;0.0025575103
884.5000000000;0.0024687417
885.0000000000;0.0022999281
885.5000000000;0.0024154654
886.0000000000;0.0024804003
886.5000000000;0.0022616021
887.0000000000;0.0022182188
887.5000000000;0.0023852198
888.0000000000;0.0025118685
888.5000000000;0.0024315531
889.0000000000;0.0023025163
889.5000000000;0.0024325559
890.0000000000;0.0024860469
890.5000000000;0.0023026741
891.0000000000;0.0021907205
891.5000000000;0.0022302247
892.0000000000;0.0023066897
892.5000000000;0.0021836043
893.0000000000;0.0019962701
893.5000000000;0.0020143306
894.0000000000;0.0020824061
894.5000000000;0.0020675776
895.0000000000;0.0019702732
895.5000000000;0.0019135622
896.0000000000;0.0019048529
896.5000000000;0.0017631559
897.0000000000;0.0016186169
897.5000000000;0.0016565552
898.0000000000;0.0018108801
898.5000000000;0.0018796425
899.0000000000;0.0017329128
899.5000000000;0.0017154360
900.0000000000;0.0017428565
900.5000000000;0.0013387266
901.0000000000;0.0010379808
901.5000000000;0.0012138498
902.0000000000;0.0014535292
902.5000000000;0.0014684978
903.0000000000;0.0012515237
903.5000000000;0.0012152818
904.0000000000;0.0013575191
904.5000000000;0.0013773659
905.0000000000;0.0012237530
905.5000000000;0.0010336002
906.0000000000;0.0010299892
906.5000000000;0.0010711370
907.0000000000;0.0009870157
907.5000000000;0.0007930640
908.0000000000;0.0006465797
908.5000000000;0.0006830896
909.0000000000;0.0008222733
909.5000000000;0.0008093960
910.0000000000;0.0004844247
910.5000000000;0.0004014291
911.0000000000;0.0006301815
911.5000000000;0.0006369614
912.0000000000;0.0005118039
912.5000000000;0.0004276399
913.0000000000;0.0003320051
913.5000000000;0.0002847678
914.0000000000;0.0003126847
914.5000000000;0.0002212483
915.0000000000;0.0001719706
915.5000000000;0.0004031142
916.0000000000;0.0004249510
916.5000000000;0.0002014170
917.0000000000;0.0002206694
917.5000000000;0.0002000864
918.0000000000;-0.0000745708
918.5000000000;-0.0003137498
919.0000000000;-0.0004362217
919.5000000000;-0.0005108505
920.0000000000;-0.0006464560
920.5000000000;-0.0007651742
921.0000000000;-0.0007302982
921.5000000000;-0.0006740761
922.0000000000;-0.0006979240
922.5000000000;-0.0007938736
923.0000000000;-0.0008710311
923.5000000000;-0.0009180716
924.0000000000;-0.0010455301
924.5000000000;-0.0011402706
925.0000000000;-0.0010917755
925.5000000000;-0.0010270956
926.0000000000;-0.0011102237
926.5000000000;-0.0013452898
927.0000000000;-0.0012628665
927.5000000000;-0.0010677140
928.0000000000;-0.0013913397
928.5000000000;-0.0014982769
929.0000000000;-0.0012008401
929.5000000000;-0.0014191881
930.0000000000;-0.0018613263
930.5000000000;-0.0019998865
931.0000000000;-0.0019068643
931.5000000000;-0.0017407452
932.0000000000;-0.0016741648
932.5000000000;-0.0018643695
933.0000000000;-0.0021260872
933.5000000000;-0.0021349401
934.0000000000;-0.0021830632
934.5000000000;-0.0023391747
935.0000000000;-0.0022964005
935.5000000000;-0.0022132797
936.0000000000;-0.0023827543
936.5000000000;-0.0029274421
937.0000000000;-0.0031870920
937.5000000000;-0.0027182209
938.0000000000;-0.0024765052
938.5000000000;-0.0026632990
939.0000000000;-0.0028809211
939.5000000000;-0.0030954210
940.0000000000;-0.0032695453
940.5000000000;-0.0033166092
941.0000000000;-0.0033313150
941.5000000000;-0.0033266209
942.0000000000;-0.0031929140
942.5000000000;-0.0033594901
943.0000000000;-0.0039124987
943.5000000000;-0.0038956502
944.0000000000;-0.0036101870
944.5000000000;-0.0038225548
945.0000000000;-0.0042037922
945.5000000000;-0.0044593443
946.0000000000;-0.0045566498
946.5000000000;-0.0047180210
947.0000000000;-0.0049261185
947.5000000000;-0.0048891911
948.0000000000;-0.0048112366
948.5000000000;-0.0049289647
949.0000000000;-0.0051966934
949.5000000000;-0.0052926303
950.0000000000;-0.0050631971
950.5000000000;-0.0049864938
951.0000000000;-0.0051609962
951.5000000000;-0.0053785834
952.0000000000;-0.0055214353
952.5000000000;-0.0057185865
953.0000000000;-0.0061752400
953.5000000000;-0.0064674257
954.0000000000;-0.0064459261
954.5000000000;-0.0065076374
955.0000000000;-0.0067393044
955.5000000000;-0.0070213042
956.0000000000;-0.0071474761
956.5000000000;-0.0071780421
957.0000000000;-0.0072683706
957.5000000000;-0.0074426653
958.0000000000;-0.0077760736
958.5000000000;-0.0082581071
959.0000000000;-0.0084331296
959.5000000000;-0.0080983695
960.0000000000;-0.0075369067
960.5000000000;-0.0076569933
961.0000000000;-0.0085358508
961.5000000000;-0.0090144360
962.0000000000;-0.0087094326
962.5000000000;-0.0081452457
963.0000000000;-0.0086059440
963.5000000000;-0.0092807496
964.0000000000;-0.0090815322
964.5000000000;-0.0090799350
965.0000000000;-0.0092723910
965.5000000000;-0.0090700900
966.0000000000;-0.0093311453
966.5000000000;-0.0097770775
967.0000000000;-0.0092255482
967.5000000000;-0.0088620828
968.0000000000;-0.0092254700
968.5000000000;-0.0092858216
969.0000000000;-0.0092459526
969.5000000000;-0.0094836652
970.0000000000;-0.0097388448
970.5000000000;-0.0095961206
971.0000000000;-0.0090691438
971.5000000000;-0.0091902511
972.0000000000;-0.0097452449
972.5000000000;-0.0099109877
973.0000000000;-0.0100530135
973.5000000000;-0.0102328043
974.0000000000;-0.0101851523
974.5000000000;-0.0103966761
975.0000000000;-0.0108326850
975.5000000000;-0.0107791908
976.0000000000;-0.0107840765
976.5000000000;-0.0111983921
977.0000000000;-0.0113082556
977.5000000000;-0.0106548565
978.0000000000;-0.0096162576
978.5000000000;-0.0097679971
979.0000000000;-0.0105919857
979.5000000000;-0.0107381595
980.0000000000;-0.0106159812
980.5000000000;-0.0106696999
981.0000000000;-0.0108862370
981.5000000000;-0.0104680117
982.0000000000;-0.0099168802
982.5000000000;-0.0107207671
983.0000000000;-0.0111923320
983.5000000000;-0.0106698135
984.0000000000;-0.0110480813
984.5000000000;-0.0117774466
985.0000000000;-0.0118655842
985.5000000000;-0.0116197439
986.0000000000;-0.0114067728
986.5000000000;-0.0115454048
987.0000000000;-0.0122660147
987.5000000000;-0.0126136830
988.0000000000;-0.0117774699
988.5000000000;-0.0119464733
989.0000000000;-0.0128715523
989.5000000000;-0.0123742521
990.0000000000;-0.0120247267
990.5000000000;-0.0124583468
991.0000000000;-0.0123580387
991.5000000000;-0.0122972978
992.0000000000;-0.0127990516
992.5000000000;-0.0132381395
993.0000000000;-0.0129123246
993.5000000000;-0.0119816177
994.0000000000;-0.0120397648
994.5000000000;-0.0123876445
995.0000000000;-0.0119101573
995.5000000000;-0.0119709838
996.0000000000;-0.0122490972
996.5000000000;-0.0116686868
997.0000000000;-0.0116716782
997.5000000000;-0.0125639141
998.0000000000;-0.0132664526
998.5000000000;-0.0134499883
999.0000000000;-0.0132235503
999.5000000000;-0.0129581047
1000.0000000000;-0.0129640987
1000.5000000000;-0.0132170059
1001.0000000000;-0.0133070219
1001.5000000000;-0.0134255858
1002.0000000000;-0.0136482557
1002.5000000000;-0.0134280641
1003.0000000000;-0.0136009706
1003.5000000000;-0.0147961089
1004.0000000000;-0.0152386632
1004.5000000000;-0.0144743780
1005.0000000000;-0.0134211332
1005.5000000000;-0.0133992825
1006.0000000000;-0.0140662538
1006.5000000000;-0.0139780585
1007.0000000000;-0.0135162566
1007.5000000000;-0.0134211760
1008.0000000000;-0.0140805878
1008.5000000000;-0.0146929240
1009.0000000000;-0.0144668249
1009.5000000000;-0.0133839920
1010.0000000000;-0.0130640930
1010.5000000000;-0.0143366791
1011.0000000000;-0.0155973919
1011.5000000000;-0.0156429708
1012.0000000000;-0.0145220943
1012.5000000000;-0.0141180642
1013.0000000000;-0.0150567889
1013.5000000000;-0.0163722038
1014.0000000000;-0.0156871565
1014.5000000000;-0.0142004695
1015.0000000000;-0.0147966575
1015.5000000000;-0.0159604102
1016.0000000000;-0.0165411066
1016.5000000000;-0.0167357959
1017.0000000000;-0.0169533677
1017.5000000000;-0.0169406198
1018.0000000000;-0.0158839114
1018.5000000000;-0.0144371241
1019.0000000000;-0.0137521122
1019.5000000000;-0.0147169381
