182.5000000000;12.0438375473
183.0000000000;9.9350347519
183.5000000000;9.2550783157
184.0000000000;9.5840806961
184.5000000000;9.1497316360
185.0000000000;7.4674000740
185.5000000000;5.7830057144
186.0000000000;5.1245670319
186.5000000000;4.0495009422
187.0000000000;2.0649638176
187.5000000000;1.1882567406
188.0000000000;0.9714454412
188.5000000000;0.7382296324
189.0000000000;0.4737903774
189.5000000000;0.3501614928
190.0000000000;0.3012685776
190.5000000000;0.2661551535
191.0000000000;0.2206364572
191.5000000000;0.1736868024
192.0000000000;0.1598578393
192.5000000000;0.1750714481
193.0000000000;0.1764053255
193.5000000000;0.1600667536
194.0000000000;0.1471397728
194.5000000000;0.1403840184
195.0000000000;0.1370045394
195.5000000000;0.1283414513
196.0000000000;0.1170869246
196.5000000000;0.1132766306
197.0000000000;0.1172835231
197.5000000000;0.1239129677
198.0000000000;0.1218819544
198.5000000000;0.1093920395
199.0000000000;0.0956074819
199.5000000000;0.0833140835
200.0000000000;0.0731758401
200.5000000000;0.0719484314
201.0000000000;0.0774204955
201.5000000000;0.0725594386
202.0000000000;0.0631867498
202.5000000000;0.0671685264
203.0000000000;0.0704647526
203.5000000000;0.0607299842
204.0000000000;0.0567560755
204.5000000000;0.0627862662
205.0000000000;0.0621913224
205.5000000000;0.0580358617
206.0000000000;0.0609748885
206.5000000000;0.0618933327
207.0000000000;0.0567545481
207.5000000000;0.0599242263
208.0000000000;0.0679006428
208.5000000000;0.0643861666
209.0000000000;0.0616429783
209.5000000000;0.0715897381
210.0000000000;0.0767368600
210.5000000000;0.0705139711
211.0000000000;0.0639529750
211.5000000000;0.0655500665
212.0000000000;0.0763587430
212.5000000000;0.0792284980
213.0000000000;0.0702420175
213.5000000000;0.0681916475
214.0000000000;0.0703532398
214.5000000000;0.0636252686
215.0000000000;0.0568228848
215.5000000000;0.0573853105
216.0000000000;0.0589041188
216.5000000000;0.0590232387
217.0000000000;0.0593818873
217.5000000000;0.0564942062
218.0000000000;0.0491613634
218.5000000000;0.0468453467
219.0000000000;0.0515382700
219.5000000000;0.0553791113
220.0000000000;0.0539778285
220.5000000000;0.0472100899
221.0000000000;0.0430830009
221.5000000000;0.0452389047
222.0000000000;0.0471887663
222.5000000000;0.0462402068
223.0000000000;0.0437703505
223.5000000000;0.0432837494
224.0000000000;0.0472829230
224.5000000000;0.0534974411
225.0000000000;0.0572114885
225.5000000000;0.0530581884
226.0000000000;0.0485954843
226.5000000000;0.0535503291
227.0000000000;0.0584610291
227.5000000000;0.0571468547
228.0000000000;0.0558956005
228.5000000000;0.0584023893
229.0000000000;0.0643635839
229.5000000000;0.0674264431
230.0000000000;0.0648702532
230.5000000000;0.0653990284
231.0000000000;0.0682428405
231.5000000000;0.0642637759
232.0000000000;0.0589082576
232.5000000000;0.0597835928
233.0000000000;0.0627725199
233.5000000000;0.0639450401
234.0000000000;0.0625602528
234.5000000000;0.0616552308
235.0000000000;0.0641479865
235.5000000000;0.0651193708
236.0000000000;0.0613230020
236.5000000000;0.0552878901
237.0000000000;0.0526982881
237.5000000000;0.0584533587
238.0000000000;0.0638111904
238.5000000000;0.0607914254
239.0000000000;0.0523129068
239.5000000000;0.0452979282
240.0000000000;0.0474139042
240.5000000000;0.0538164228
241.0000000000;0.0566109084
241.5000000000;0.0550511666
242.0000000000;0.0522757024
242.5000000000;0.0540594682
243.0000000000;0.0586972646
243.5000000000;0.0612347610
244.0000000000;0.0625733435
244.5000000000;0.0653597265
245.0000000000;0.0724002793
245.5000000000;0.0826896951
246.0000000000;0.0923587307
246.5000000000;0.1001605392
247.0000000000;0.1068355665
247.5000000000;0.1156099439
248.0000000000;0.1269591898
248.5000000000;0.1376567483
249.0000000000;0.1458420455
249.5000000000;0.1515710056
250.0000000000;0.1588827521
250.5000000000;0.1681655794
251.0000000000;0.1727241576
251.5000000000;0.1740102470
252.0000000000;0.1785398722
252.5000000000;0.1838389039
253.0000000000;0.1854510307
253.5000000000;0.1816622615
254.0000000000;0.1778601557
254.5000000000;0.1835046560
255.0000000000;0.1892116964
255.5000000000;0.1847350746
256.0000000000;0.1817032546
256.5000000000;0.1847383082
257.0000000000;0.1851934344
257.5000000000;0.1817478389
258.0000000000;0.1768478751
258.5000000000;0.1695610136
259.0000000000;0.1627942920
259.5000000000;0.1656952500
260.0000000000;0.1712856591
260.5000000000;0.1648768783
261.0000000000;0.1545591652
261.5000000000;0.1506177783
262.0000000000;0.1526430994
262.5000000000;0.1557999551
263.0000000000;0.1531299949
263.5000000000;0.1425566971
264.0000000000;0.1282623559
264.5000000000;0.1251797825
265.0000000000;0.1331891418
265.5000000000;0.1343326122
266.0000000000;0.1292087436
266.5000000000;0.1262742430
267.0000000000;0.1245686263
267.5000000000;0.1236072332
268.0000000000;0.1262508184
268.5000000000;0.1270732731
269.0000000000;0.1182723865
269.5000000000;0.1091054231
270.0000000000;0.1072122380
270.5000000000;0.1070803553
271.0000000000;0.1063344628
271.5000000000;0.1066012233
272.0000000000;0.1078301892
272.5000000000;0.1097515747
273.0000000000;0.1134567410
273.5000000000;0.1177435592
274.0000000000;0.1185948774
274.5000000000;0.1143277064
275.0000000000;0.1070034951
275.5000000000;0.1074948311
276.0000000000;0.1173354238
276.5000000000;0.1205735654
277.0000000000;0.1179884672
277.5000000000;0.1215962470
278.0000000000;0.1299678087
278.5000000000;0.1389894336
279.0000000000;0.1482319534
279.5000000000;0.1520509720
280.0000000000;0.1429724842
280.5000000000;0.1408082098
281.0000000000;0.1599820554
281.5000000000;0.1644511074
282.0000000000;0.1502652913
282.5000000000;0.1606512070
283.0000000000;0.1785764247
283.5000000000;0.1677676886
284.0000000000;0.1589525491
284.5000000000;0.1738582402
285.0000000000;0.1934362650
285.5000000000;0.2075723112
286.0000000000;0.2161197215
286.5000000000;0.2233807594
287.0000000000;0.2284578681
287.5000000000;0.2183686346
288.0000000000;0.2047693729
288.5000000000;0.2163281590
289.0000000000;0.2353140414
289.5000000000;0.2396122217
290.0000000000;0.2447535992
290.5000000000;0.2535103858
291.0000000000;0.2503200769
291.5000000000;0.2461901307
292.0000000000;0.2568906546
292.5000000000;0.2676076889
293.0000000000;0.2650927007
293.5000000000;0.2489101440
294.0000000000;0.2378116399
294.5000000000;0.2501474023
295.0000000000;0.2529372275
295.5000000000;0.2341230214
296.0000000000;0.2392648160
296.5000000000;0.2624739707
297.0000000000;0.2622789145
297.5000000000;0.2529456913
298.0000000000;0.2541174889
298.5000000000;0.2534619570
299.0000000000;0.2482457012
299.5000000000;0.2481771559
300.0000000000;0.2517078519
300.5000000000;0.2524480820
301.0000000000;0.2453272045
301.5000000000;0.2356955707
302.0000000000;0.2389108241
302.5000000000;0.2439601272
303.0000000000;0.2342715263
303.5000000000;0.2290195674
304.0000000000;0.2384320498
304.5000000000;0.2462243289
305.0000000000;0.2477952838
305.5000000000;0.2474307120
306.0000000000;0.2436490804
306.5000000000;0.2379381806
307.0000000000;0.2409463376
307.5000000000;0.2527552545
308.0000000000;0.2635526955
308.5000000000;0.2674211860
309.0000000000;0.2650490403
309.5000000000;0.2693986297
310.0000000000;0.2818968296
310.5000000000;0.2900479734
311.0000000000;0.2945929170
311.5000000000;0.3004670143
312.0000000000;0.3024325073
312.5000000000;0.3023128510
313.0000000000;0.3134924173
313.5000000000;0.3275737464
314.0000000000;0.3295473754
314.5000000000;0.3410614431
315.0000000000;0.3715910614
315.5000000000;0.3906306922
316.0000000000;0.3984192908
316.5000000000;0.4183780849
317.0000000000;0.4375086725
317.5000000000;0.4468475282
318.0000000000;0.4773438573
318.5000000000;0.5208660960
319.0000000000;0.5316190124
319.5000000000;0.5370857716
320.0000000000;0.5764925480
320.5000000000;0.6186170578
321.0000000000;0.6463034749
321.5000000000;0.6767590642
322.0000000000;0.7111709714
322.5000000000;0.7435019016
323.0000000000;0.7808084488
323.5000000000;0.8268583417
324.0000000000;0.8751555681
324.5000000000;0.9202272296
325.0000000000;0.9593266249
325.5000000000;0.9973146915
326.0000000000;1.0401407480
326.5000000000;1.0908476114
327.0000000000;1.1494787931
327.5000000000;1.2126692533
328.0000000000;1.2708321810
328.5000000000;1.3176641464
329.0000000000;1.3615036011
329.5000000000;1.4112136364
330.0000000000;1.4718562365
330.5000000000;1.5375254154
331.0000000000;1.5982686281
331.5000000000;1.6463646889
332.0000000000;1.6913768053
332.5000000000;1.7601456642
333.0000000000;1.8311947584
333.5000000000;1.8717339039
334.0000000000;1.9140455723
334.5000000000;1.9864715338
335.0000000000;2.0844967365
335.5000000000;2.1714284420
336.0000000000;2.2077009678
336.5000000000;2.2402501106
337.0000000000;2.3025305271
337.5000000000;2.3560507298
338.0000000000;2.3954331875
338.5000000000;2.4456770420
339.0000000000;2.5105972290
339.5000000000;2.5790319443
340.0000000000;2.6248188019
340.5000000000;2.6551587582
341.0000000000;2.7058415413
341.5000000000;2.7610855103
342.0000000000;2.7970175743
342.5000000000;2.8314318657
343.0000000000;2.8776652813
343.5000000000;2.9339873791
344.0000000000;2.9848437309
344.5000000000;3.0165476799
345.0000000000;3.0478653908
345.5000000000;3.0922114849
346.0000000000;3.1438972950
346.5000000000;3.1846992970
347.0000000000;3.2012088299
347.5000000000;3.2290654182
348.0000000000;3.2829918861
348.5000000000;3.3220710754
349.0000000000;3.3387050629
349.5000000000;3.3544497490
350.0000000000;3.3897037506
350.5000000000;3.4462153912
351.0000000000;3.4899878502
351.5000000000;3.5130741596
352.0000000000;3.5339231491
352.5000000000;3.5635695457
353.0000000000;3.6041274071
353.5000000000;3.6439292431
354.0000000000;3.6749019623
354.5000000000;3.6965570450
355.0000000000;3.7204859257
355.5000000000;3.7570388317
356.0000000000;3.7960183620
356.5000000000;3.8263590336
357.0000000000;3.8427968025
357.5000000000;3.8605659008
358.0000000000;3.8988063335
358.5000000000;3.9477431774
359.0000000000;3.9966063499
359.5000000000;4.0388684273
360.0000000000;4.0669574738
360.5000000000;4.0788078308
361.0000000000;4.0966224670
361.5000000000;4.1318044662
362.0000000000;4.1697959900
362.5000000000;4.2092213631
363.0000000000;4.2579336166
363.5000000000;4.3019733429
364.0000000000;4.3371543884
364.5000000000;4.3935585022
365.0000000000;4.4619793892
365.5000000000;4.5020375252
366.0000000000;4.5328688622
366.5000000000;4.5838994980
367.0000000000;4.6493768692
367.5000000000;4.7121534348
368.0000000000;4.7513871193
368.5000000000;4.7913584709
369.0000000000;4.8628134727
369.5000000000;4.9432697296
370.0000000000;5.0144858360
370.5000000000;5.0789332390
371.0000000000;5.1407580376
371.5000000000;5.2053375244
372.0000000000;5.2817602158
372.5000000000;5.3692731857
373.0000000000;5.4504089355
373.5000000000;5.5224566460
374.0000000000;5.5960264206
374.5000000000;5.6912560463
375.0000000000;5.8075351715
375.5000000000;5.9042973518
376.0000000000;5.9862065315
376.5000000000;6.0892248154
377.0000000000;6.2019605637
377.5000000000;6.3088316917
378.0000000000;6.4267354012
378.5000000000;6.5539541245
379.0000000000;6.6678242683
379.5000000000;6.7889389992
380.0000000000;6.9387354851
380.5000000000;7.0815067291
381.0000000000;7.2050371170
381.5000000000;7.3381023407
382.0000000000;7.4869823456
382.5000000000;7.6416821480
383.0000000000;7.8046946526
383.5000000000;7.9832191467
384.0000000000;8.1651430130
384.5000000000;8.3448429108
385.0000000000;8.5276184082
385.5000000000;8.7083368301
386.0000000000;8.8903322220
386.5000000000;9.0902204514
387.0000000000;9.3015270233
387.5000000000;9.5103759766
388.0000000000;9.7314281464
388.5000000000;9.9714202881
389.0000000000;10.2127189636
389.5000000000;10.4468307495
390.0000000000;10.6696949005
390.5000000000;10.9165077209
391.0000000000;11.2028541565
391.5000000000;11.4819726944
392.0000000000;11.7406949997
392.5000000000;11.9924020767
393.0000000000;12.2605590820
393.5000000000;12.5668344498
394.0000000000;12.8833217621
394.5000000000;13.1865501404
395.0000000000;13.4933176041
395.5000000000;13.8231000900
396.0000000000;14.1691312790
396.5000000000;14.4948472977
397.0000000000;14.8029041290
397.5000000000;15.1356582642
398.0000000000;15.4884271622
398.5000000000;15.8445358276
399.0000000000;16.2157459259
399.5000000000;16.5936298370
400.0000000000;16.9392147064
400.5000000000;17.2888984680
401.0000000000;17.6871128082
401.5000000000;18.0953044891
402.0000000000;18.4918975830
402.5000000000;18.8865032196
403.0000000000;19.2815818787
403.5000000000;19.6815624237
404.0000000000;20.0947875977
404.5000000000;20.5113277435
405.0000000000;20.9086742401
405.5000000000;21.3015499115
406.0000000000;21.7171840668
406.5000000000;22.1467914581
407.0000000000;22.5901679993
407.5000000000;23.0503406525
408.0000000000;23.5051364899
408.5000000000;23.9279327393
409.0000000000;24.3472442627
409.5000000000;24.7964630127
410.0000000000;25.2600307465
410.5000000000;25.7122478485
411.0000000000;26.1424407959
411.5000000000;26.5729064941
412.0000000000;27.0164794922
412.5000000000;27.4631099701
413.0000000000;27.8975887299
413.5000000000;28.3304767609
414.0000000000;28.7795791626
414.5000000000;29.2394828796
415.0000000000;29.6922683716
415.5000000000;30.1237277985
416.0000000000;30.5547180176
416.5000000000;30.9952087402
417.0000000000;31.4311676025
417.5000000000;31.8644237518
418.0000000000;32.2912330627
418.5000000000;32.7028694153
419.0000000000;33.1229286194
419.5000000000;33.5553359985
420.0000000000;33.9719161987
420.5000000000;34.3728141785
421.0000000000;34.7739868164
421.5000000000;35.1732521057
422.0000000000;35.5748176575
422.5000000000;35.9695625305
423.0000000000;36.3511962891
423.5000000000;36.7406387329
424.0000000000;37.1369590759
424.5000000000;37.5429153442
425.0000000000;37.9493713379
425.5000000000;38.3260078430
426.0000000000;38.7004051208
426.5000000000;39.0890464783
427.0000000000;39.4476928711
427.5000000000;39.7681121826
428.0000000000;40.0953598022
428.5000000000;40.4601135254
429.0000000000;40.8400306702
429.5000000000;41.1734542847
430.0000000000;41.4801597595
430.5000000000;41.8033370972
431.0000000000;42.1407699585
431.5000000000;42.4841423035
432.0000000000;42.8208618164
432.5000000000;43.1392364502
433.0000000000;43.4432182312
433.5000000000;43.7475891113
434.0000000000;44.0334205627
434.5000000000;44.3169937134
435.0000000000;44.6290779114
435.5000000000;44.9392776489
436.0000000000;45.2172622681
436.5000000000;45.4732551575
437.0000000000;45.7292633057
437.5000000000;46.0024147034
438.0000000000;46.2883872986
438.5000000000;46.5482177734
439.0000000000;46.7895774841
439.5000000000;47.0546379089
440.0000000000;47.3156127930
440.5000000000;47.5461807251
441.0000000000;47.7819442749
441.5000000000;48.0213012695
442.0000000000;48.2689437866
442.5000000000;48.5251350403
443.0000000000;48.7604866028
443.5000000000;48.9874191284
444.0000000000;49.2122573853
444.5000000000;49.4261169434
445.0000000000;49.6364288330
445.5000000000;49.8541755676
446.0000000000;50.0785331726
446.5000000000;50.2991371155
447.0000000000;50.5065078735
447.5000000000;50.7132415771
448.0000000000;50.9262199402
448.5000000000;51.1253242493
449.0000000000;51.3129158020
449.5000000000;51.5185813904
450.0000000000;51.7326736450
450.5000000000;51.9335060120
451.0000000000;52.1294860840
451.5000000000;52.3285484314
452.0000000000;52.5303497314
452.5000000000;52.7188453674
453.0000000000;52.8855628967
453.5000000000;53.0707778931
454.0000000000;53.2833557129
454.5000000000;53.4800758362
455.0000000000;53.6591339111
455.5000000000;53.8386459351
456.0000000000;54.0114250183
456.5000000000;54.1767845154
457.0000000000;54.3483810425
457.5000000000;54.5229187012
458.0000000000;54.6911544800
458.5000000000;54.8573989868
459.0000000000;55.0335540771
459.5000000000;55.2227325439
460.0000000000;55.4107284546
460.5000000000;55.5857238770
461.0000000000;55.7596092224
461.5000000000;55.9309730530
462.0000000000;56.0852012634
462.5000000000;56.2329025269
463.0000000000;56.3841972351
463.5000000000;56.5364227295
464.0000000000;56.6969032288
464.5000000000;56.8631324768
465.0000000000;57.0310974121
465.5000000000;57.2046203613
466.0000000000;57.3725471497
466.5000000000;57.5293769836
467.0000000000;57.6945075989
467.5000000000;57.8583068848
468.0000000000;57.9984474182
468.5000000000;58.1474494934
469.0000000000;58.3287734985
469.5000000000;58.5062866211
470.0000000000;58.6607589722
470.5000000000;58.8005676270
471.0000000000;58.9493217468
471.5000000000;59.1138801575
472.0000000000;59.2619781494
472.5000000000;59.3923721313
473.0000000000;59.5259017944
473.5000000000;59.6654586792
474.0000000000;59.8139915466
474.5000000000;59.9667205811
475.0000000000;60.1155891418
475.5000000000;60.2609825134
476.0000000000;60.4000549316
476.5000000000;60.5324363708
477.0000000000;60.6656379700
477.5000000000;60.8048057556
478.0000000000;60.9486007690
478.5000000000;61.0919456482
479.0000000000;61.2316894531
479.5000000000;61.3522911072
480.0000000000;61.4691314697
480.5000000000;61.6207084656
481.0000000000;61.7725410461
481.5000000000;61.8922576904
482.0000000000;62.0072746277
482.5000000000;62.1323966980
483.0000000000;62.2630310059
483.5000000000;62.3843574524
484.0000000000;62.4939804077
484.5000000000;62.6249580383
485.0000000000;62.7657127380
485.5000000000;62.8465309143
486.0000000000;62.9314651489
486.5000000000;63.0889358521
487.0000000000;63.2462921143
487.5000000000;63.3671951294
488.0000000000;63.5065727234
488.5000000000;63.6433906555
489.0000000000;63.7560958862
489.5000000000;63.8555641174
490.0000000000;63.9595870972
490.5000000000;64.0882797241
491.0000000000;64.2205429077
491.5000000000;64.3352203369
492.0000000000;64.4475402832
492.5000000000;64.5587463379
493.0000000000;64.6596069336
493.5000000000;64.7641143799
494.0000000000;64.8858184814
494.5000000000;65.0106582642
495.0000000000;65.1326522827
495.5000000000;65.2571334839
496.0000000000;65.3647613525
496.5000000000;65.4504699707
497.0000000000;65.5597839355
497.5000000000;65.6889495850
498.0000000000;65.7878189087
498.5000000000;65.8695907593
499.0000000000;65.9610671997
499.5000000000;66.0628662109
500.0000000000;66.1720733643
500.5000000000;66.2808380127
501.0000000000;66.3784408569
501.5000000000;66.4660491943
502.0000000000;66.5699539185
502.5000000000;66.6875915527
503.0000000000;66.7897491455
503.5000000000;66.8909683228
504.0000000000;67.0041580200
504.5000000000;67.0996551514
505.0000000000;67.1768188477
505.5000000000;67.2624664307
506.0000000000;67.3662796021
506.5000000000;67.4809265137
507.0000000000;67.5774536133
507.5000000000;67.6628723145
508.0000000000;67.7657241821
508.5000000000;67.8712539673
509.0000000000;67.9665374756
509.5000000000;68.0584030151
510.0000000000;68.1473693848
510.5000000000;68.2322082520
511.0000000000;68.3209838867
511.5000000000;68.4158096313
512.0000000000;68.5044097900
512.5000000000;68.5872039795
513.0000000000;68.6735687256
513.5000000000;68.7705001831
514.0000000000;68.8745803833
514.5000000000;68.9641876221
515.0000000000;69.0434799194
515.5000000000;69.1321258545
516.0000000000;69.2226867676
516.5000000000;69.3079452515
517.0000000000;69.3925094604
517.5000000000;69.4718017578
518.0000000000;69.5400848389
518.5000000000;69.6184463501
519.0000000000;69.7165298462
519.5000000000;69.8123626709
520.0000000000;69.8961639404
520.5000000000;69.9712982178
521.0000000000;70.0498352051
521.5000000000;70.1378631592
522.0000000000;70.2298736572
522.5000000000;70.3143997192
523.0000000000;70.3816452026
523.5000000000;70.4534835815
524.0000000000;70.5429000854
524.5000000000;70.6335983276
525.0000000000;70.7114486694
525.5000000000;70.7732620239
526.0000000000;70.8443756104
526.5000000000;70.9326400757
527.0000000000;71.0106811523
527.5000000000;71.0736236572
528.0000000000;71.1343765259
528.5000000000;71.2132263184
529.0000000000;71.3081512451
529.5000000000;71.3864593506
530.0000000000;71.4502258301
530.5000000000;71.5186309814
531.0000000000;71.5937881470
531.5000000000;71.6727905273
532.0000000000;71.7513656616
532.5000000000;71.8248214722
533.0000000000;71.8895034790
533.5000000000;71.9481582642
534.0000000000;72.0100173950
534.5000000000;72.0875549316
535.0000000000;72.1670379639
535.5000000000;72.2312164307
536.0000000000;72.2973480225
536.5000000000;72.3721313477
537.0000000000;72.4417190552
537.5000000000;72.5099716187
538.0000000000;72.5835418701
538.5000000000;72.6490631104
539.0000000000;72.7063598633
539.5000000000;72.7716369629
540.0000000000;72.8424530029
540.5000000000;72.9104919434
541.0000000000;72.9774017334
541.5000000000;73.0440063477
542.0000000000;73.1081161499
542.5000000000;73.1701126099
543.0000000000;73.2330322266
543.5000000000;73.2983627319
544.0000000000;73.3669052124
544.5000000000;73.4397811890
545.0000000000;73.5085830688
545.5000000000;73.5671310425
546.0000000000;73.6238708496
546.5000000000;73.6862335205
547.0000000000;73.7564010620
547.5000000000;73.8205795288
548.0000000000;73.8722076416
548.5000000000;73.9322280884
549.0000000000;74.0040512085
549.5000000000;74.0737609863
550.0000000000;74.1423492432
550.5000000000;74.2120361328
551.0000000000;74.2751235962
551.5000000000;74.3332061768
552.0000000000;74.3945541382
552.5000000000;74.4611434937
553.0000000000;74.5290985107
553.5000000000;74.5854110718
554.0000000000;74.6355667114
554.5000000000;74.6969146729
555.0000000000;74.7663574219
555.5000000000;74.8326187134
556.0000000000;74.8858642578
556.5000000000;74.9362030029
557.0000000000;74.9994583130
557.5000000000;75.0633621216
558.0000000000;75.1212997437
558.5000000000;75.1854934692
559.0000000000;75.2517929077
559.5000000000;75.3085632324
560.0000000000;75.3633499146
560.5000000000;75.4216766357
561.0000000000;75.4793930054
561.5000000000;75.5328216553
562.0000000000;75.5827865601
562.5000000000;75.6436157227
563.0000000000;75.7145156860
563.5000000000;75.7751922607
564.0000000000;75.8314361572
564.5000000000;75.8946762085
565.0000000000;75.9535064697
565.5000000000;76.0023574829
566.0000000000;76.0469436646
566.5000000000;76.0967254639
567.0000000000;76.1524047852
567.5000000000;76.1915054321
568.0000000000;76.2160415649
568.5000000000;76.2537078857
569.0000000000;76.3150329590
569.5000000000;76.3835449219
570.0000000000;76.4180374146
570.5000000000;76.4404525757
571.0000000000;76.5203552246
571.5000000000;76.6523056030
572.0000000000;76.7524871826
572.5000000000;76.7524566650
573.0000000000;76.7059631348
573.5000000000;76.7078399658
574.0000000000;76.7724990845
574.5000000000;76.8693466187
575.0000000000;76.9240264893
575.5000000000;76.9432220459
576.0000000000;76.9899291992
576.5000000000;77.0593490601
577.0000000000;77.1276397705
577.5000000000;77.1681823730
578.0000000000;77.1897430420
578.5000000000;77.2207946777
579.0000000000;77.2649002075
579.5000000000;77.3145523071
580.0000000000;77.3630294800
580.5000000000;77.4031448364
581.0000000000;77.4322357178
581.5000000000;77.4772796631
582.0000000000;77.5420608521
582.5000000000;77.6088943481
583.0000000000;77.6656951904
583.5000000000;77.6921386719
584.0000000000;77.7013092041
584.5000000000;77.7159805298
585.0000000000;77.7533569336
585.5000000000;77.8073196411
586.0000000000;77.8611297607
586.5000000000;77.9018630981
587.0000000000;77.9301757813
587.5000000000;77.9573059082
588.0000000000;77.9843597412
588.5000000000;78.0164337158
589.0000000000;78.0706939697
589.5000000000;78.1329193115
590.0000000000;78.1641769409
590.5000000000;78.1877517700
591.0000000000;78.2262268066
591.5000000000;78.2566680908
592.0000000000;78.2725372314
592.5000000000;78.2834625244
593.0000000000;78.3028488159
593.5000000000;78.3351135254
594.0000000000;78.3678436279
594.5000000000;78.3964080811
595.0000000000;78.4241561890
595.5000000000;78.4605178833
596.0000000000;78.5024719238
596.5000000000;78.5239944458
597.0000000000;78.5339279175
597.5000000000;78.5555191040
598.0000000000;78.5840759277
598.5000000000;78.6150283813
599.0000000000;78.6473770142
599.5000000000;78.6703186035
600.0000000000;78.6785659790
600.5000000000;78.6894607544
601.0000000000;78.7080612183
601.5000000000;78.7263107300
602.0000000000;78.7470016479
602.5000000000;78.7754669189
603.0000000000;78.8132858276
603.5000000000;78.8460693359
604.0000000000;78.8559112549
604.5000000000;78.8635787964
605.0000000000;78.8873214722
605.5000000000;78.9163360596
606.0000000000;78.9346313477
606.5000000000;78.9320678711
607.0000000000;78.9391555786
607.5000000000;78.9673995972
608.0000000000;78.9843597412
608.5000000000;78.9928894043
609.0000000000;79.0101928711
609.5000000000;79.0167160034
610.0000000000;79.0110702515
610.5000000000;79.0219497681
611.0000000000;79.0436477661
611.5000000000;79.0584030151
612.0000000000;79.0681838989
612.5000000000;79.0746688843
613.0000000000;79.0763015747
613.5000000000;79.0824203491
614.0000000000;79.0990524292
614.5000000000;79.1141433716
615.0000000000;79.1235427856
615.5000000000;79.1322784424
616.0000000000;79.1448745728
616.5000000000;79.1626434326
617.0000000000;79.1790695190
617.5000000000;79.1888732910
618.0000000000;79.1912841797
618.5000000000;79.1903076172
619.0000000000;79.1892395020
619.5000000000;79.1891326904
620.0000000000;79.1997222900
620.5000000000;79.2280044556
621.0000000000;79.2485198975
621.5000000000;79.2453079224
622.0000000000;79.2301025391
622.5000000000;79.2251739502
623.0000000000;79.2431106567
623.5000000000;79.2588348389
624.0000000000;79.2655792236
624.5000000000;79.2811431885
625.0000000000;79.3003311157
625.5000000000;79.3128356934
626.0000000000;79.3212280273
626.5000000000;79.3252258301
627.0000000000;79.3224716187
627.5000000000;79.3232345581
628.0000000000;79.3337249756
628.5000000000;79.3446502686
629.0000000000;79.3511047363
629.5000000000;79.3549270630
630.0000000000;79.3662643433
630.5000000000;79.3860549927
631.0000000000;79.3987731934
631.5000000000;79.4049377441
632.0000000000;79.4127426147
632.5000000000;79.4195022583
633.0000000000;79.4259490967
633.5000000000;79.4380645752
634.0000000000;79.4469223022
634.5000000000;79.4454193115
635.0000000000;79.4501419067
635.5000000000;79.4632186890
636.0000000000;79.4716339111
636.5000000000;79.4815139771
637.0000000000;79.4967727661
637.5000000000;79.5021667480
638.0000000000;79.5046005249
638.5000000000;79.5231170654
639.0000000000;79.5394287109
639.5000000000;79.5421371460
640.0000000000;79.5495986938
640.5000000000;79.5679092407
641.0000000000;79.5910797119
641.5000000000;79.6044845581
642.0000000000;79.6102142334
642.5000000000;79.6307220459
643.0000000000;79.6456527710
643.5000000000;79.6338195801
644.0000000000;79.6339263916
644.5000000000;79.6560745239
645.0000000000;79.6730880737
645.5000000000;79.6870574951
646.0000000000;79.7047576904
646.5000000000;79.7158203125
647.0000000000;79.7226715088
647.5000000000;79.7368164063
648.0000000000;79.7515029907
648.5000000000;79.7598342896
649.0000000000;79.7651596069
649.5000000000;79.7748641968
650.0000000000;79.7933883667
650.5000000000;79.8064422607
651.0000000000;79.8116989136
651.5000000000;79.8269500732
652.0000000000;79.8493576050
652.5000000000;79.8671264648
653.0000000000;79.8761672974
653.5000000000;79.8897094727
654.0000000000;79.9264297485
654.5000000000;79.9411926270
655.0000000000;79.8585510254
655.5000000000;79.7364425659
656.0000000000;79.7232284546
656.5000000000;79.8196105957
657.0000000000;79.9958801270
657.5000000000;80.0424118042
658.0000000000;80.0506896973
658.5000000000;80.1014938354
659.0000000000;80.1430053711
659.5000000000;80.1746215820
660.0000000000;80.2032241821
660.5000000000;80.2308273315
661.0000000000;80.2516937256
661.5000000000;80.2656784058
662.0000000000;80.2963333130
662.5000000000;80.3378372192
663.0000000000;80.3584976196
663.5000000000;80.3715667725
664.0000000000;80.3975067139
664.5000000000;80.4356918335
665.0000000000;80.4770507813
665.5000000000;80.5115814209
666.0000000000;80.5438003540
666.5000000000;80.5748367310
667.0000000000;80.5961990356
667.5000000000;80.6207580566
668.0000000000;80.6635971069
668.5000000000;80.7040634155
669.0000000000;80.7348785400
669.5000000000;80.7710113525
670.0000000000;80.8095169067
670.5000000000;80.8430175781
671.0000000000;80.8738937378
671.5000000000;80.9073410034
672.0000000000;80.9475936890
672.5000000000;80.9862365723
673.0000000000;81.0194854736
673.5000000000;81.0578155518
674.0000000000;81.0979690552
674.5000000000;81.1323089600
675.0000000000;81.1750946045
675.5000000000;81.2236633301
676.0000000000;81.2516098022
676.5000000000;81.2804946899
677.0000000000;81.3362960815
677.5000000000;81.3894882202
678.0000000000;81.4277267456
678.5000000000;81.4644470215
679.0000000000;81.5045623779
679.5000000000;81.5465621948
680.0000000000;81.5856399536
680.5000000000;81.6271820068
681.0000000000;81.6795196533
681.5000000000;81.7324066162
682.0000000000;81.7771835327
682.5000000000;81.8156585693
683.0000000000;81.8603439331
683.5000000000;81.9167785645
684.0000000000;81.9549789429
684.5000000000;81.9740905762
685.0000000000;82.0072784424
685.5000000000;82.0575790405
686.0000000000;82.1167373657
686.5000000000;82.1775588989
687.0000000000;82.2326583862
687.5000000000;82.2779998779
688.0000000000;82.3213348389
688.5000000000;82.3711624146
689.0000000000;82.4298171997
689.5000000000;82.4834976196
690.0000000000;82.5199050903
690.5000000000;82.5607070923
691.0000000000;82.6127929688
691.5000000000;82.6604080200
692.0000000000;82.7061309814
692.5000000000;82.7568054199
693.0000000000;82.8094863892
693.5000000000;82.8646774292
694.0000000000;82.9251174927
694.5000000000;82.9781112671
695.0000000000;83.0205230713
695.5000000000;83.0732040405
696.0000000000;83.1283493042
696.5000000000;83.1686782837
697.0000000000;83.2141494751
697.5000000000;83.2745208740
698.0000000000;83.3379516602
698.5000000000;83.3954772949
699.0000000000;83.4452667236
699.5000000000;83.5007095337
700.0000000000;83.5631866455
700.5000000000;83.6221923828
701.0000000000;83.6731719971
701.5000000000;83.7169570923
702.0000000000;83.7597198486
702.5000000000;83.8075561523
703.0000000000;83.8650131226
703.5000000000;83.9293899536
704.0000000000;83.9915161133
704.5000000000;84.0402221680
705.0000000000;84.0849304199
705.5000000000;84.1366500854
706.0000000000;84.1878509521
706.5000000000;84.2365188599
707.0000000000;84.2876434326
707.5000000000;84.3395309448
708.0000000000;84.3911895752
708.5000000000;84.4460830688
709.0000000000;84.5072631836
709.5000000000;84.5734024048
710.0000000000;84.6277008057
710.5000000000;84.6705780029
711.0000000000;84.7234573364
711.5000000000;84.7782974243
712.0000000000;84.8253707886
712.5000000000;84.8811798096
713.0000000000;84.9420166016
713.5000000000;84.9904022217
714.0000000000;85.0352478027
714.5000000000;85.0859680176
715.0000000000;85.1399383545
715.5000000000;85.1925125122
716.0000000000;85.2437362671
716.5000000000;85.3042144775
717.0000000000;85.3688278198
717.5000000000;85.4183349609
718.0000000000;85.4613571167
718.5000000000;85.5106964111
719.0000000000;85.5639419556
719.5000000000;85.6205520630
720.0000000000;85.6807174683
720.5000000000;85.7324142456
721.0000000000;85.7740249634
721.5000000000;85.8222274780
722.0000000000;85.8734588623
722.5000000000;85.9210281372
723.0000000000;85.9796218872
723.5000000000;86.0420989990
724.0000000000;86.0851745605
724.5000000000;86.1278610229
725.0000000000;86.1843261719
725.5000000000;86.2345886230
726.0000000000;86.2774353027
726.5000000000;86.3238601685
727.0000000000;86.3722915649
727.5000000000;86.4204025269
728.0000000000;86.4693298340
728.5000000000;86.5149154663
729.0000000000;86.5563659668
729.5000000000;86.6068649292
730.0000000000;86.6644515991
730.5000000000;86.7137069702
731.0000000000;86.7522964478
731.5000000000;86.7886581421
732.0000000000;86.8392028809
732.5000000000;86.9009780884
733.0000000000;86.9595794678
733.5000000000;87.0044097900
734.0000000000;87.0394592285
734.5000000000;87.0803070068
735.0000000000;87.1199035645
735.5000000000;87.1547470093
736.0000000000;87.2055740356
736.5000000000;87.2639312744
737.0000000000;87.3061599731
737.5000000000;87.3496246338
738.0000000000;87.4019851685
738.5000000000;87.4435806274
739.0000000000;87.4828643799
739.5000000000;87.5311355591
740.0000000000;87.5675125122
740.5000000000;87.5960083008
741.0000000000;87.6412506104
741.5000000000;87.6933822632
742.0000000000;87.7425384521
742.5000000000;87.7991180420
743.0000000000;87.8506469727
743.5000000000;87.8801651001
744.0000000000;87.9103546143
744.5000000000;87.9557876587
745.0000000000;88.0113296509
745.5000000000;88.0595245361
746.0000000000;88.0903854370
746.5000000000;88.1205749512
747.0000000000;88.1571960449
747.5000000000;88.1985244751
748.0000000000;88.2462387085
748.5000000000;88.2945861816
749.0000000000;88.3292694092
749.5000000000;88.3634490967
750.0000000000;88.4088897705
750.5000000000;88.4414672852
751.0000000000;88.4672012329
751.5000000000;88.5149688721
752.0000000000;88.5714874268
752.5000000000;88.6125183105
753.0000000000;88.6226882935
753.5000000000;88.6356353760
754.0000000000;88.6890792847
754.5000000000;88.7499084473
755.0000000000;88.7966384888
755.5000000000;88.8336639404
756.0000000000;88.8587493896
756.5000000000;88.8758773804
757.0000000000;88.9043807983
757.5000000000;88.9452133179
758.0000000000;88.9869537354
758.5000000000;89.0239791870
759.0000000000;89.0581283569
759.5000000000;89.0969238281
760.0000000000;89.1393585205
760.5000000000;89.1794967651
761.0000000000;89.2085800171
761.5000000000;89.2412490845
762.0000000000;89.2992553711
762.5000000000;89.3475723267
763.0000000000;89.3705215454
763.5000000000;89.4010925293
764.0000000000;89.4365310669
764.5000000000;89.4637680054
765.0000000000;89.4977340698
765.5000000000;89.5447235107
766.0000000000;89.5977249146
766.5000000000;89.6473464966
767.0000000000;89.6838760376
767.5000000000;89.7000350952
768.0000000000;89.7099151611
768.5000000000;89.7321395874
769.0000000000;89.7636184692
769.5000000000;89.8054199219
770.0000000000;89.8611450195
770.5000000000;89.9044494629
771.0000000000;89.9247970581
771.5000000000;89.9598312378
772.0000000000;90.0083007813
772.5000000000;90.0472946167
773.0000000000;90.0843429565
773.5000000000;90.1181945801
774.0000000000;90.1351318359
774.5000000000;90.1601104736
775.0000000000;90.2084655762
775.5000000000;90.2461776733
776.0000000000;90.2672500610
776.5000000000;90.2879028320
777.0000000000;90.3161010742
777.5000000000;90.3520660400
778.0000000000;90.3882293701
778.5000000000;90.4123611450
779.0000000000;90.4234848022
779.5000000000;90.4467315674
780.0000000000;90.4827117920
780.5000000000;90.5137252808
781.0000000000;90.5331039429
781.5000000000;90.5478897095
782.0000000000;90.5768737793
782.5000000000;90.6106643677
783.0000000000;90.6356735229
783.5000000000;90.6613616943
784.0000000000;90.6967086792
784.5000000000;90.7428054810
785.0000000000;90.7780990601
785.5000000000;90.7945938110
786.0000000000;90.8126068115
786.5000000000;90.8354034424
787.0000000000;90.8606185913
787.5000000000;90.8964157104
788.0000000000;90.9261703491
788.5000000000;90.9248504639
789.0000000000;90.9377136230
789.5000000000;90.9855270386
790.0000000000;91.0249710083
790.5000000000;91.0472793579
791.0000000000;91.0649490356
791.5000000000;91.0888595581
792.0000000000;91.1198501587
792.5000000000;91.1494216919
793.0000000000;91.1694717407
793.5000000000;91.1790542603
794.0000000000;91.1877441406
794.5000000000;91.2034454346
795.0000000000;91.2309722900
795.5000000000;91.2692413330
796.0000000000;91.3098144531
796.5000000000;91.3402404785
797.0000000000;91.3616790771
797.5000000000;91.3768157959
798.0000000000;91.3843688965
798.5000000000;91.3943557739
799.0000000000;91.4160308838
799.5000000000;91.4383697510
800.0000000000;91.4570922852
800.5000000000;91.4780426025
801.0000000000;91.5079421997
801.5000000000;91.5424270630
802.0000000000;91.5619201660
802.5000000000;91.5781936646
803.0000000000;91.6094360352
803.5000000000;91.6389541626
804.0000000000;91.6572723389
804.5000000000;91.6691207886
805.0000000000;91.6881408691
805.5000000000;91.7144012451
806.0000000000;91.7249221802
806.5000000000;91.7292938232
807.0000000000;91.7481613159
807.5000000000;91.7773132324
808.0000000000;91.8063201904
808.5000000000;91.8265151978
809.0000000000;91.8456192017
809.5000000000;91.8740234375
810.0000000000;91.9141006470
810.5000000000;91.9399948120
811.0000000000;91.9341812134
811.5000000000;91.9413681030
812.0000000000;91.9685058594
812.5000000000;91.9849777222
813.0000000000;92.0011062622
813.5000000000;92.0230178833
814.0000000000;92.0331726074
814.5000000000;92.0475540161
815.0000000000;92.0818328857
815.5000000000;92.1005020142
816.0000000000;92.1014099121
816.5000000000;92.1141433716
817.0000000000;92.1362075806
817.5000000000;92.1569061279
818.0000000000;92.1699600220
818.5000000000;92.1846008301
819.0000000000;92.2088470459
819.5000000000;92.2281036377
820.0000000000;92.2413024902
820.5000000000;92.2580871582
821.0000000000;92.2702407837
821.5000000000;92.2771148682
822.0000000000;92.2934341431
822.5000000000;92.3161163330
823.0000000000;92.3351135254
823.5000000000;92.3470611572
824.0000000000;92.3579101563
824.5000000000;92.3780975342
825.0000000000;92.4081649780
825.5000000000;92.4350509644
826.0000000000;92.4365768433
826.5000000000;92.4322891235
827.0000000000;92.4476470947
827.5000000000;92.4769363403
828.0000000000;92.5022583008
828.5000000000;92.5089263916
829.0000000000;92.5182876587
829.5000000000;92.5401153564
830.0000000000;92.5594177246
830.5000000000;92.5639266968
831.0000000000;92.5622177124
831.5000000000;92.5956649780
832.0000000000;92.6289215088
832.5000000000;92.6079940796
833.0000000000;92.6051788330
833.5000000000;92.6450958252
834.0000000000;92.6740341187
834.5000000000;92.6750183105
835.0000000000;92.6641387939
835.5000000000;92.6836929321
836.0000000000;92.7146835327
836.5000000000;92.7213745117
837.0000000000;92.7398757935
837.5000000000;92.7691574097
838.0000000000;92.7698059082
838.5000000000;92.7712936401
839.0000000000;92.7982482910
839.5000000000;92.8295974731
840.0000000000;92.8467636108
840.5000000000;92.8464660645
841.0000000000;92.8547897339
841.5000000000;92.8778152466
842.0000000000;92.8995361328
842.5000000000;92.9048004150
843.0000000000;92.8981094360
843.5000000000;92.9077758789
844.0000000000;92.9325866699
844.5000000000;92.9592971802
845.0000000000;92.9813385010
845.5000000000;92.9897689819
846.0000000000;92.9836730957
846.5000000000;93.0005874634
847.0000000000;93.0369796753
847.5000000000;93.0399398804
848.0000000000;93.0434875488
848.5000000000;93.0742492676
849.0000000000;93.0771255493
849.5000000000;93.0630798340
850.0000000000;93.0754470825
850.5000000000;93.0991668701
851.0000000000;93.1206741333
851.5000000000;93.1379623413
852.0000000000;93.1353988647
852.5000000000;93.1208572388
853.0000000000;93.1398925781
853.5000000000;93.1684951782
854.0000000000;93.1701660156
854.5000000000;93.1804656982
855.0000000000;93.2042312622
855.5000000000;93.2156372070
856.0000000000;93.2225418091
856.5000000000;93.2358016968
857.0000000000;93.2549209595
857.5000000000;93.2639541626
858.0000000000;93.2558364868
858.5000000000;93.2575912476
859.0000000000;93.2783508301
859.5000000000;93.3064270020
860.0000000000;93.3159179688
860.5000000000;93.3089599609
861.0000000000;93.3168334961
861.5000000000;93.3295288086
862.0000000000;93.3393249512
862.5000000000;93.3686676025
863.0000000000;93.3990020752
863.5000000000;93.3999862671
864.0000000000;93.3848953247
864.5000000000;93.3790893555
865.0000000000;93.4014739990
865.5000000000;93.4183273315
866.0000000000;93.4196548462
866.5000000000;93.4447708130
867.0000000000;93.4686508179
867.5000000000;93.4663467407
868.0000000000;93.4833297729
868.5000000000;93.5096282959
869.0000000000;93.5067214966
869.5000000000;93.5123214722
870.0000000000;93.5387268066
870.5000000000;93.5519256592
871.0000000000;93.5428237915
871.5000000000;93.5279998779
872.0000000000;93.5444183350
872.5000000000;93.5544052124
873.0000000000;93.5240402222
873.5000000000;93.5512161255
874.0000000000;93.6175231934
874.5000000000;93.6137466431
875.0000000000;93.5982971191
875.5000000000;93.6176528931
876.0000000000;93.6350097656
876.5000000000;93.6402587891
877.0000000000;93.6438674927
877.5000000000;93.6650314331
878.0000000000;93.6913223267
878.5000000000;93.6974716187
879.0000000000;93.6934738159
879.5000000000;93.6944808960
880.0000000000;93.7084808350
880.5000000000;93.7178421021
881.0000000000;93.7212524414
881.5000000000;93.7518005371
882.0000000000;93.7665100098
882.5000000000;93.7306823730
883.0000000000;93.7353210449
883.5000000000;93.7708892822
884.0000000000;93.7629547119
884.5000000000;93.7652130127
885.0000000000;93.7983169556
885.5000000000;93.8088226318
886.0000000000;93.8023986816
886.5000000000;93.8055648804
887.0000000000;93.8314590454
887.5000000000;93.8492279053
888.0000000000;93.8309707642
888.5000000000;93.8302154541
889.0000000000;93.8576202393
889.5000000000;93.8740310669
890.0000000000;93.8634033203
890.5000000000;93.8428192139
891.0000000000;93.8561859131
891.5000000000;93.8778762817
892.0000000000;93.8818893433
892.5000000000;93.9052352905
893.0000000000;93.9372558594
893.5000000000;93.9446868896
894.0000000000;93.9444808960
894.5000000000;93.9499740601
895.0000000000;93.9603576660
895.5000000000;93.9742965698
896.0000000000;93.9923934937
896.5000000000;94.0169372559
897.0000000000;94.0408554077
897.5000000000;94.0518112183
898.0000000000;94.0388031006
898.5000000000;94.0156860352
899.0000000000;94.0025863647
899.5000000000;93.9819717407
900.0000000000;93.9756698608
900.5000000000;94.0349731445
901.0000000000;94.0901107788
901.5000000000;94.0902481079
902.0000000000;94.0780105591
902.5000000000;94.0810317993
903.0000000000;94.0939788818
903.5000000000;94.0669784546
904.0000000000;94.0422134399
904.5000000000;94.0893936157
905.0000000000;94.1146011353
905.5000000000;94.1013565063
906.0000000000;94.1337966919
906.5000000000;94.1483306885
907.0000000000;94.1194763184
907.5000000000;94.1533126831
908.0000000000;94.2005233765
908.5000000000;94.1804351807
909.0000000000;94.1467208862
909.5000000000;94.1561889648
910.0000000000;94.2209548950
910.5000000000;94.2440414429
911.0000000000;94.1938018799
911.5000000000;94.1389923096
912.0000000000;94.1533584595
912.5000000000;94.2351379395
913.0000000000;94.2712402344
913.5000000000;94.2543792725
914.0000000000;94.2304687500
914.5000000000;94.2250061035
915.0000000000;94.2317733765
915.5000000000;94.2307052612
916.0000000000;94.2284545898
916.5000000000;94.2377624512
917.0000000000;94.2650985718
917.5000000000;94.2827453613
918.0000000000;94.2854156494
918.5000000000;94.3113555908
919.0000000000;94.3183212280
919.5000000000;94.2773742676
920.0000000000;94.2816390991
920.5000000000;94.3225784302
921.0000000000;94.3372497559
921.5000000000;94.3638916016
922.0000000000;94.3729476929
922.5000000000;94.2893447876
923.0000000000;94.2715072632
923.5000000000;94.3740234375
924.0000000000;94.4119949341
924.5000000000;94.3758621216
925.0000000000;94.3391647339
925.5000000000;94.3497619629
926.0000000000;94.3791503906
926.5000000000;94.3701019287
927.0000000000;94.3308639526
927.5000000000;94.3137435913
928.0000000000;94.3701629639
928.5000000000;94.4136047363
929.0000000000;94.3958969116
929.5000000000;94.3731384277
930.0000000000;94.3790359497
930.5000000000;94.4132156372
931.0000000000;94.4359436035
931.5000000000;94.4268569946
932.0000000000;94.3973159790
932.5000000000;94.4005889893
933.0000000000;94.4175567627
933.5000000000;94.3898010254
934.0000000000;94.3736724854
934.5000000000;94.3853912354
935.0000000000;94.3766555786
935.5000000000;94.4018554688
936.0000000000;94.4709777832
936.5000000000;94.4712066650
937.0000000000;94.4492034912
937.5000000000;94.4731750488
938.0000000000;94.4560470581
938.5000000000;94.4168243408
939.0000000000;94.4340667725
939.5000000000;94.4665222168
940.0000000000;94.4778823853
940.5000000000;94.4638290405
941.0000000000;94.4230422974
941.5000000000;94.3860092163
942.0000000000;94.4122467041
942.5000000000;94.4468460083
943.0000000000;94.4428863525
943.5000000000;94.4658508301
944.0000000000;94.5010070801
944.5000000000;94.4948654175
945.0000000000;94.4498977661
945.5000000000;94.4116210938
946.0000000000;94.4376602173
946.5000000000;94.5158538818
947.0000000000;94.5632553101
947.5000000000;94.4784698486
948.0000000000;94.4189605713
948.5000000000;94.4568634033
949.0000000000;94.4051589966
949.5000000000;94.3478164673
950.0000000000;94.4192352295
950.5000000000;94.5287475586
951.0000000000;94.5615997314
951.5000000000;94.4776763916
952.0000000000;94.4482192993
952.5000000000;94.5137329102
953.0000000000;94.5625228882
953.5000000000;94.5434265137
954.0000000000;94.4959564209
954.5000000000;94.5236587524
955.0000000000;94.5382080078
955.5000000000;94.4725570679
956.0000000000;94.4326782227
956.5000000000;94.5008163452
957.0000000000;94.6260681152
957.5000000000;94.5234832764
958.0000000000;94.3512496948
958.5000000000;94.4380645752
959.0000000000;94.4947738647
959.5000000000;94.4007110596
960.0000000000;94.3241271973
960.5000000000;94.3809661865
961.0000000000;94.5285186768
961.5000000000;94.5690689087
962.0000000000;94.5227279663
962.5000000000;94.4809341431
963.0000000000;94.4837188721
963.5000000000;94.4791259766
964.0000000000;94.4357147217
964.5000000000;94.4762039185
965.0000000000;94.5708084106
965.5000000000;94.6071243286
966.0000000000;94.6283645630
966.5000000000;94.6152038574
967.0000000000;94.5015640259
967.5000000000;94.4367065430
968.0000000000;94.5122604370
968.5000000000;94.6416854858
969.0000000000;94.6112442017
969.5000000000;94.4470214844
970.0000000000;94.5860290527
970.5000000000;94.7138290405
971.0000000000;94.4775238037
971.5000000000;94.3961944580
972.0000000000;94.5607910156
972.5000000000;94.6839675903
973.0000000000;94.5491790771
973.5000000000;94.3691787720
974.0000000000;94.5552444458
974.5000000000;94.7206420898
975.0000000000;94.6499710083
975.5000000000;94.5843429565
976.0000000000;94.6466598511
976.5000000000;94.7938079834
977.0000000000;94.8233718872
977.5000000000;94.7002639771
978.0000000000;94.5522079468
978.5000000000;94.6206588745
979.0000000000;94.7352981567
979.5000000000;94.6434860229
980.0000000000;94.6296234131
980.5000000000;94.7655029297
981.0000000000;94.8699645996
981.5000000000;94.7954025269
982.0000000000;94.6438293457
982.5000000000;94.6871261597
983.0000000000;94.7384872437
983.5000000000;94.6885833740
984.0000000000;94.7185668945
984.5000000000;94.7915878296
985.0000000000;94.8167419434
985.5000000000;94.7985382080
986.0000000000;94.7687606812
986.5000000000;94.7757492065
987.0000000000;94.8716735840
987.5000000000;94.9254913330
988.0000000000;94.8318328857
988.5000000000;94.9597015381
989.0000000000;95.1704025269
989.5000000000;94.9899673462
990.0000000000;94.8888244629
990.5000000000;95.0171356201
991.0000000000;94.9647979736
991.5000000000;94.9530715942
992.0000000000;95.0906829834
992.5000000000;95.0267944336
993.0000000000;94.8695602417
993.5000000000;94.8556289673
994.0000000000;95.0019226074
994.5000000000;95.0575866699
995.0000000000;94.8745346069
995.5000000000;94.8875045776
996.0000000000;95.0204391479
996.5000000000;94.9345550537
997.0000000000;94.8904418945
997.5000000000;94.9893188477
998.0000000000;95.0721740723
998.5000000000;95.0133590698
999.0000000000;94.8764114380
999.5000000000;94.8912277222
1000.0000000000;95.0324554443
1000.5000000000;95.1123886108
1001.0000000000;94.9217529297
1001.5000000000;94.8506851196
1002.0000000000;95.1332778931
1002.5000000000;95.2509613037
1003.0000000000;95.2533264160
1003.5000000000;95.3504180908
1004.0000000000;95.2626724243
1004.5000000000;95.1396560669
1005.0000000000;95.2638931274
1005.5000000000;95.2340545654
1006.0000000000;94.9991531372
1006.5000000000;94.8859863281
1007.0000000000;94.9876937866
1007.5000000000;95.1477737427
1008.0000000000;95.0941085815
1008.5000000000;95.0365753174
1009.0000000000;95.0997467041
1009.5000000000;95.1063919067
1010.0000000000;95.0968551636
1010.5000000000;95.1381759644
1011.0000000000;95.1727523804
1011.5000000000;95.1319046021
1012.0000000000;95.0690307617
1012.5000000000;95.2543487549
1013.0000000000;95.4944992065
1013.5000000000;95.3883666992
1014.0000000000;94.8802032471
1014.5000000000;94.5374526978
1015.0000000000;94.9366455078
1015.5000000000;95.2247848511
1016.0000000000;95.1452026367
1016.5000000000;95.1938400269
1017.0000000000;95.2898025513
1017.5000000000;95.2995681763
1018.0000000000;95.2060089111
1018.5000000000;94.9129104614
1019.0000000000;94.6194381714
1019.5000000000;94.8837890625
