182.5000000000;10.6935949326
183.0000000000;10.4406118393
183.5000000000;9.4206094742
184.0000000000;8.3286924362
184.5000000000;8.7911348343
185.0000000000;8.7565393448
185.5000000000;6.6668634415
186.0000000000;5.2913517952
186.5000000000;3.9762437344
187.0000000000;2.0753710270
187.5000000000;1.2165343761
188.0000000000;0.9041845798
188.5000000000;0.6589651108
189.0000000000;0.4744413197
189.5000000000;0.3597029150
190.0000000000;0.2831141055
190.5000000000;0.2606124282
191.0000000000;0.2411118746
191.5000000000;0.1929531544
192.0000000000;0.1729671657
192.5000000000;0.1857235730
193.0000000000;0.1785290837
193.5000000000;0.1554567665
194.0000000000;0.1466601044
194.5000000000;0.1405193359
195.0000000000;0.1270455867
195.5000000000;0.1162010655
196.0000000000;0.1128876433
196.5000000000;0.1138038933
197.0000000000;0.1167523786
197.5000000000;0.1188760102
198.0000000000;0.1137470528
198.5000000000;0.1027247012
199.0000000000;0.0952338800
199.5000000000;0.0895019099
200.0000000000;0.0802629739
200.5000000000;0.0716663375
201.0000000000;0.0668371171
201.5000000000;0.0640057325
202.0000000000;0.0628669113
202.5000000000;0.0637119189
203.0000000000;0.0615736432
203.5000000000;0.0546453670
204.0000000000;0.0534191690
204.5000000000;0.0576674230
205.0000000000;0.0541197769
205.5000000000;0.0501466095
206.0000000000;0.0585641079
206.5000000000;0.0613020323
207.0000000000;0.0502005666
207.5000000000;0.0500053875
208.0000000000;0.0621081069
208.5000000000;0.0673141554
209.0000000000;0.0654117018
209.5000000000;0.0625740960
210.0000000000;0.0616105013
210.5000000000;0.0639638603
211.0000000000;0.0696520880
211.5000000000;0.0753606781
212.0000000000;0.0764106512
212.5000000000;0.0693199858
213.0000000000;0.0599842928
213.5000000000;0.0649933368
214.0000000000;0.0740747452
214.5000000000;0.0671949014
215.0000000000;0.0611920841
215.5000000000;0.0662777498
216.0000000000;0.0621653087
216.5000000000;0.0502130538
217.0000000000;0.0492401272
217.5000000000;0.0544271730
218.0000000000;0.0552810617
218.5000000000;0.0504774414
219.0000000000;0.0440893658
219.5000000000;0.0435806215
220.0000000000;0.0467219651
220.5000000000;0.0475183688
221.0000000000;0.0453183502
221.5000000000;0.0419788621
222.0000000000;0.0413072631
222.5000000000;0.0438116789
223.0000000000;0.0467285812
223.5000000000;0.0442193151
224.0000000000;0.0352231190
224.5000000000;0.0337851308
225.0000000000;0.0432756953
225.5000000000;0.0518832132
226.0000000000;0.0529761426
226.5000000000;0.0468401015
227.0000000000;0.0471228808
227.5000000000;0.0578958429
228.0000000000;0.0634596050
228.5000000000;0.0620259866
229.0000000000;0.0616315082
229.5000000000;0.0600473881
230.0000000000;0.0560582876
230.5000000000;0.0572227947
231.0000000000;0.0618916675
231.5000000000;0.0607942939
232.0000000000;0.0603053942
232.5000000000;0.0666704476
233.0000000000;0.0671379715
233.5000000000;0.0593589395
234.0000000000;0.0565249808
234.5000000000;0.0592744686
235.0000000000;0.0617676713
235.5000000000;0.0623718835
236.0000000000;0.0611739457
236.5000000000;0.0593620352
237.0000000000;0.0585905723
237.5000000000;0.0599648990
238.0000000000;0.0604554862
238.5000000000;0.0588067658
239.0000000000;0.0600188784
239.5000000000;0.0624198765
240.0000000000;0.0588762499
240.5000000000;0.0547324941
241.0000000000;0.0562478118
241.5000000000;0.0561792403
242.0000000000;0.0520977899
242.5000000000;0.0504451990
243.0000000000;0.0521421097
243.5000000000;0.0541230738
244.0000000000;0.0520675369
244.5000000000;0.0470288359
245.0000000000;0.0496828854
245.5000000000;0.0578695983
246.0000000000;0.0595771521
246.5000000000;0.0549776554
247.0000000000;0.0494044013
247.5000000000;0.0489488840
248.0000000000;0.0529631153
248.5000000000;0.0535810590
249.0000000000;0.0537990257
249.5000000000;0.0595154315
250.0000000000;0.0637293011
250.5000000000;0.0620997176
251.0000000000;0.0598523580
251.5000000000;0.0615828373
252.0000000000;0.0689929128
252.5000000000;0.0745475590
253.0000000000;0.0735807642
253.5000000000;0.0742647275
254.0000000000;0.0773337930
254.5000000000;0.0766278356
255.0000000000;0.0815062672
255.5000000000;0.0967469811
256.0000000000;0.0947383419
256.5000000000;0.0753538981
257.0000000000;0.0764124542
257.5000000000;0.0916611180
258.0000000000;0.0968486890
258.5000000000;0.1007300466
259.0000000000;0.1074236855
259.5000000000;0.1023155898
260.0000000000;0.0919818133
260.5000000000;0.0949761644
261.0000000000;0.1055778787
261.5000000000;0.1155760586
262.0000000000;0.1276894957
262.5000000000;0.1452493370
263.0000000000;0.1696476936
263.5000000000;0.1941061169
264.0000000000;0.2143937051
264.5000000000;0.2417865545
265.0000000000;0.2803932130
265.5000000000;0.3229567111
266.0000000000;0.3648020327
266.5000000000;0.4028276205
267.0000000000;0.4326310754
267.5000000000;0.4547588229
268.0000000000;0.4774169624
268.5000000000;0.5045766234
269.0000000000;0.5350933671
269.5000000000;0.5599397421
270.0000000000;0.5782259703
270.5000000000;0.6084798574
271.0000000000;0.6453568339
271.5000000000;0.6666345596
272.0000000000;0.6941598654
272.5000000000;0.7474840283
273.0000000000;0.7920331955
273.5000000000;0.8191437721
274.0000000000;0.8593026996
274.5000000000;0.9191240668
275.0000000000;0.9893183112
275.5000000000;1.0556304455
276.0000000000;1.1135330200
276.5000000000;1.1751363277
277.0000000000;1.2403815985
277.5000000000;1.3021069765
278.0000000000;1.3688335419
278.5000000000;1.4462877512
279.0000000000;1.5229194164
279.5000000000;1.5918980837
280.0000000000;1.6545450687
280.5000000000;1.7202800512
281.0000000000;1.7998775244
281.5000000000;1.8966002464
282.0000000000;2.0017845631
282.5000000000;2.0961849689
283.0000000000;2.1896500587
283.5000000000;2.3029294014
284.0000000000;2.4301435947
284.5000000000;2.5611555576
285.0000000000;2.6916282177
285.5000000000;2.8243215084
286.0000000000;2.9628560543
286.5000000000;3.0973806381
287.0000000000;3.2218232155
287.5000000000;3.3465654850
288.0000000000;3.4703483582
288.5000000000;3.5808770657
289.0000000000;3.6863920689
289.5000000000;3.7951619625
290.0000000000;3.8929502964
290.5000000000;3.9803748131
291.0000000000;4.0753116608
291.5000000000;4.1683950424
292.0000000000;4.2439970970
292.5000000000;4.3124189377
293.0000000000;4.3804545403
293.5000000000;4.4418673515
294.0000000000;4.4943318367
294.5000000000;4.5396933556
295.0000000000;4.5837273598
295.5000000000;4.6296744347
296.0000000000;4.6743144989
296.5000000000;4.7168474197
297.0000000000;4.7570180893
297.5000000000;4.7846069336
298.0000000000;4.7966694832
298.5000000000;4.8137121201
299.0000000000;4.8415274620
299.5000000000;4.8675732613
300.0000000000;4.8760137558
300.5000000000;4.8615417480
301.0000000000;4.8515439034
301.5000000000;4.8556509018
302.0000000000;4.8550419807
302.5000000000;4.8423728943
303.0000000000;4.8206801414
303.5000000000;4.8036751747
304.0000000000;4.7960324287
304.5000000000;4.7847084999
305.0000000000;4.7613368034
305.5000000000;4.7246713638
306.0000000000;4.6870622635
306.5000000000;4.6574482918
307.0000000000;4.6292719841
307.5000000000;4.5973620415
308.0000000000;4.5602345467
308.5000000000;4.5198183060
309.0000000000;4.4795265198
309.5000000000;4.4436664581
310.0000000000;4.4102473259
310.5000000000;4.3709373474
311.0000000000;4.3284296989
311.5000000000;4.2875981331
312.0000000000;4.2401986122
312.5000000000;4.1901969910
313.0000000000;4.1601629257
313.5000000000;4.1383595467
314.0000000000;4.0982632637
314.5000000000;4.0515341759
315.0000000000;4.0119996071
315.5000000000;3.9772546291
316.0000000000;3.9423882961
316.5000000000;3.9032735825
317.0000000000;3.8641185760
317.5000000000;3.8277940750
318.0000000000;3.7874171734
318.5000000000;3.7470066547
319.0000000000;3.7208220959
319.5000000000;3.7029347420
320.0000000000;3.6799075603
320.5000000000;3.6452307701
321.0000000000;3.6019802094
321.5000000000;3.5640978813
322.0000000000;3.5449755192
322.5000000000;3.5459651947
323.0000000000;3.5256314278
323.5000000000;3.4772033691
324.0000000000;3.4614381790
324.5000000000;3.4670131207
325.0000000000;3.4408578873
325.5000000000;3.4038722515
326.0000000000;3.3833770752
326.5000000000;3.3734054565
327.0000000000;3.3633081913
327.5000000000;3.3440585136
328.0000000000;3.3214719296
328.5000000000;3.3045275211
329.0000000000;3.2950904369
329.5000000000;3.2829189301
330.0000000000;3.2526497841
330.5000000000;3.2396504879
331.0000000000;3.2716228962
331.5000000000;3.2820105553
332.0000000000;3.2460720539
332.5000000000;3.2139081955
333.0000000000;3.2032620907
333.5000000000;3.2059035301
334.0000000000;3.1976485252
334.5000000000;3.1711099148
335.0000000000;3.1499464512
335.5000000000;3.1435520649
336.0000000000;3.1467437744
336.5000000000;3.1415803432
337.0000000000;3.1176507473
337.5000000000;3.0862324238
338.0000000000;3.0676784515
338.5000000000;3.0786252022
339.0000000000;3.0808274746
339.5000000000;3.0468056202
340.0000000000;3.0180408955
340.5000000000;3.0068869591
341.0000000000;2.9901583195
341.5000000000;2.9705865383
342.0000000000;2.9539024830
342.5000000000;2.9214098454
343.0000000000;2.8803269863
343.5000000000;2.8673245907
344.0000000000;2.8630793095
344.5000000000;2.8333778381
345.0000000000;2.7980120182
345.5000000000;2.7719986439
346.0000000000;2.7473089695
346.5000000000;2.7233638763
347.0000000000;2.7023863792
347.5000000000;2.6738910675
348.0000000000;2.6380159855
348.5000000000;2.6162827015
349.0000000000;2.5946183205
349.5000000000;2.5422422886
350.0000000000;2.4900081158
350.5000000000;2.4660019875
351.0000000000;2.4511854649
351.5000000000;2.4257335663
352.0000000000;2.3780262470
352.5000000000;2.3189034462
353.0000000000;2.2683348656
353.5000000000;2.2462565899
354.0000000000;2.2329144478
354.5000000000;2.1769366264
355.0000000000;2.1151542664
355.5000000000;2.0944941044
356.0000000000;2.0651872158
356.5000000000;2.0129024982
357.0000000000;1.9853055477
357.5000000000;1.9593203068
358.0000000000;1.8939907551
358.5000000000;1.8435373306
359.0000000000;1.8327943087
359.5000000000;1.8014359474
360.0000000000;1.7405525446
360.5000000000;1.6915448904
361.0000000000;1.6483963728
361.5000000000;1.5978842974
362.0000000000;1.5586934090
362.5000000000;1.5247271061
363.0000000000;1.4701095819
363.5000000000;1.4103364944
364.0000000000;1.3699480295
364.5000000000;1.3598277569
365.0000000000;1.3511347771
365.5000000000;1.2930262089
366.0000000000;1.2284115553
366.5000000000;1.2048612833
367.0000000000;1.1735665798
367.5000000000;1.1216408014
368.0000000000;1.0897139311
368.5000000000;1.0793068409
369.0000000000;1.0692739487
369.5000000000;1.0337649584
370.0000000000;0.9813612700
370.5000000000;0.9641512632
371.0000000000;0.9757239223
371.5000000000;0.9727523923
372.0000000000;0.9162036777
372.5000000000;0.8269377947
373.0000000000;0.8085594773
373.5000000000;0.8334038854
374.0000000000;0.8048147559
374.5000000000;0.7566122413
375.0000000000;0.7293668985
375.5000000000;0.7069820762
376.0000000000;0.6814472079
376.5000000000;0.6580754519
377.0000000000;0.6534240246
377.5000000000;0.6648389697
378.0000000000;0.6438465118
378.5000000000;0.5959658027
379.0000000000;0.5742363334
379.5000000000;0.5747469068
380.0000000000;0.5730497241
380.5000000000;0.5534324646
381.0000000000;0.5254719853
381.5000000000;0.5190785527
382.0000000000;0.5219858885
382.5000000000;0.5122955441
383.0000000000;0.4989471436
383.5000000000;0.4881950617
384.0000000000;0.4789019227
384.5000000000;0.4776998460
385.0000000000;0.4864270091
385.5000000000;0.4784207940
386.0000000000;0.4546337426
386.5000000000;0.4576680362
387.0000000000;0.4688563645
387.5000000000;0.4499232173
388.0000000000;0.4390909970
388.5000000000;0.4569432735
389.0000000000;0.4683094621
389.5000000000;0.4590232968
390.0000000000;0.4373173118
390.5000000000;0.4285553098
391.0000000000;0.4444836080
391.5000000000;0.4635725021
392.0000000000;0.4719604552
392.5000000000;0.4668709338
393.0000000000;0.4567132890
393.5000000000;0.4507281482
394.0000000000;0.4537687600
394.5000000000;0.4593282938
395.0000000000;0.4553243816
395.5000000000;0.4551674426
396.0000000000;0.4669381082
396.5000000000;0.4617138803
397.0000000000;0.4426060021
397.5000000000;0.4444204271
398.0000000000;0.4545810819
398.5000000000;0.4506398439
399.0000000000;0.4395378828
399.5000000000;0.4419038594
400.0000000000;0.4820899963
400.5000000000;0.5183137059
401.0000000000;0.5013166070
401.5000000000;0.4722320735
402.0000000000;0.4698824286
402.5000000000;0.5013906360
403.0000000000;0.5247058272
403.5000000000;0.4992677271
404.0000000000;0.4808323979
404.5000000000;0.4995876849
405.0000000000;0.5204450488
405.5000000000;0.5331604481
406.0000000000;0.5444994569
406.5000000000;0.5561076999
407.0000000000;0.5669208169
407.5000000000;0.5738651156
408.0000000000;0.5872362852
408.5000000000;0.6206474900
409.0000000000;0.6573821902
409.5000000000;0.6768545508
410.0000000000;0.6673097610
410.5000000000;0.6558174491
411.0000000000;0.6865290999
411.5000000000;0.7384890914
412.0000000000;0.7779678702
412.5000000000;0.7926709056
413.0000000000;0.7978264093
413.5000000000;0.8221518397
414.0000000000;0.8584162593
414.5000000000;0.8936757445
415.0000000000;0.9336355925
415.5000000000;0.9748961329
416.0000000000;1.0086410046
416.5000000000;1.0459073782
417.0000000000;1.0965163708
417.5000000000;1.1519095898
418.0000000000;1.2085039616
418.5000000000;1.2701154947
419.0000000000;1.3321926594
419.5000000000;1.3877533674
420.0000000000;1.4444353580
420.5000000000;1.5080542564
421.0000000000;1.5759218931
421.5000000000;1.6407465935
422.0000000000;1.7018700838
422.5000000000;1.7743860483
423.0000000000;1.8637642860
423.5000000000;1.9630972147
424.0000000000;2.0638978481
424.5000000000;2.1635470390
425.0000000000;2.2640874386
425.5000000000;2.3685100079
426.0000000000;2.4972431660
426.5000000000;2.6332786083
427.0000000000;2.7355992794
427.5000000000;2.8369662762
428.0000000000;2.9711434841
428.5000000000;3.1279163361
429.0000000000;3.2918610573
429.5000000000;3.4415664673
430.0000000000;3.5794343948
430.5000000000;3.7270245552
431.0000000000;3.9039111137
431.5000000000;4.0983304977
432.0000000000;4.2817573547
432.5000000000;4.4683747292
433.0000000000;4.6718721390
433.5000000000;4.8706884384
434.0000000000;5.0599255562
434.5000000000;5.2785558701
435.0000000000;5.5149655342
435.5000000000;5.7292466164
436.0000000000;5.9613547325
436.5000000000;6.2166113853
437.0000000000;6.4572663307
437.5000000000;6.7034296989
438.0000000000;6.9734978676
438.5000000000;7.2419161797
439.0000000000;7.5008711815
439.5000000000;7.7626819611
440.0000000000;8.0374975204
440.5000000000;8.3324375153
441.0000000000;8.6370840073
441.5000000000;8.9228401184
442.0000000000;9.2109527588
442.5000000000;9.5316104889
443.0000000000;9.8683290482
443.5000000000;10.2021741867
444.0000000000;10.5294713974
444.5000000000;10.8596401215
445.0000000000;11.1937818527
445.5000000000;11.5317630768
446.0000000000;11.8791303635
446.5000000000;12.2367334366
447.0000000000;12.6082572937
447.5000000000;12.9838132858
448.0000000000;13.3445701599
448.5000000000;13.7073431015
449.0000000000;14.0830669403
449.5000000000;14.4659433365
450.0000000000;14.8542337418
450.5000000000;15.2489557266
451.0000000000;15.6539154053
451.5000000000;16.0640888214
452.0000000000;16.4676666260
452.5000000000;16.8643932343
453.0000000000;17.2658309937
453.5000000000;17.6902084351
454.0000000000;18.1335716248
454.5000000000;18.5657482147
455.0000000000;18.9852924347
455.5000000000;19.4083023071
456.0000000000;19.8437156677
456.5000000000;20.2897453308
457.0000000000;20.7280254364
457.5000000000;21.1595916748
458.0000000000;21.5964679718
458.5000000000;22.0330448151
459.0000000000;22.4813251495
459.5000000000;22.9472122192
460.0000000000;23.4236221313
460.5000000000;23.9117355347
461.0000000000;24.3966922760
461.5000000000;24.8571243286
462.0000000000;25.3143024445
462.5000000000;25.7902088165
463.0000000000;26.2613296509
463.5000000000;26.7179412842
464.0000000000;27.1896934509
464.5000000000;27.6684074402
465.0000000000;28.1436672211
465.5000000000;28.6315231323
466.0000000000;29.1119956970
466.5000000000;29.5798454285
467.0000000000;30.0934848785
467.5000000000;30.6227321625
468.0000000000;31.0911331177
468.5000000000;31.5530223846
469.0000000000;32.0733718872
469.5000000000;32.6199455261
470.0000000000;33.1505393982
470.5000000000;33.6478042603
471.0000000000;34.1363830566
471.5000000000;34.6387634277
472.0000000000;35.1405296326
472.5000000000;35.6274642944
473.0000000000;36.0921707153
473.5000000000;36.5668067932
474.0000000000;37.0887451172
474.5000000000;37.6195526123
475.0000000000;38.1196022034
475.5000000000;38.5976181030
476.0000000000;39.0799064636
476.5000000000;39.5814399719
477.0000000000;40.0892410278
477.5000000000;40.5937652588
478.0000000000;41.0828018188
478.5000000000;41.5580673218
479.0000000000;42.0420112610
479.5000000000;42.5228881836
480.0000000000;42.9933319092
480.5000000000;43.4822006226
481.0000000000;43.9695777893
481.5000000000;44.4340057373
482.0000000000;44.9053916931
482.5000000000;45.3824119568
483.0000000000;45.8409118652
483.5000000000;46.3109664917
484.0000000000;46.7792549133
484.5000000000;47.1527481079
485.0000000000;47.6391334534
485.5000000000;48.3451881409
486.0000000000;48.6912384033
486.5000000000;48.6623039246
487.0000000000;48.9826545715
487.5000000000;49.7641525269
488.0000000000;50.3255844116
488.5000000000;50.6989212036
489.0000000000;51.1398315430
489.5000000000;51.5837059021
490.0000000000;51.9823112488
490.5000000000;52.3674201965
491.0000000000;52.7699775696
491.5000000000;53.1949844360
492.0000000000;53.6128692627
492.5000000000;53.9979171753
493.0000000000;54.3479156494
493.5000000000;54.7072677612
494.0000000000;55.1176567078
494.5000000000;55.5478553772
495.0000000000;55.9623031616
495.5000000000;56.3499679565
496.0000000000;56.7099533081
496.5000000000;57.0428199768
497.0000000000;57.3667259216
497.5000000000;57.7161102295
498.0000000000;58.0966644287
498.5000000000;58.4360923767
499.0000000000;58.7119789124
499.5000000000;59.0233688354
500.0000000000;59.3880615234
500.5000000000;59.7368240356
501.0000000000;60.0464019775
501.5000000000;60.3290519714
502.0000000000;60.6338539124
502.5000000000;60.9663734436
503.0000000000;61.2784652710
503.5000000000;61.5690040588
504.0000000000;61.8632583618
504.5000000000;62.1761741638
505.0000000000;62.4815750122
505.5000000000;62.7414360046
506.0000000000;63.0091552734
506.5000000000;63.3185157776
507.0000000000;63.6027450562
507.5000000000;63.8492355347
508.0000000000;64.0915069580
508.5000000000;64.3534851074
509.0000000000;64.6418533325
509.5000000000;64.9106903076
510.0000000000;65.1477890015
510.5000000000;65.3810806274
511.0000000000;65.6251678467
511.5000000000;65.8770904541
512.0000000000;66.1155929565
512.5000000000;66.3423843384
513.0000000000;66.5732955933
513.5000000000;66.8207397461
514.0000000000;67.0794296265
514.5000000000;67.3106384277
515.0000000000;67.5203399658
515.5000000000;67.7409439087
516.0000000000;67.9562072754
516.5000000000;68.1591491699
517.0000000000;68.3767776489
517.5000000000;68.5958023071
518.0000000000;68.7866287231
518.5000000000;68.9848403931
519.0000000000;69.2055587769
519.5000000000;69.4015274048
520.0000000000;69.5830230713
520.5000000000;69.7910308838
521.0000000000;69.9969329834
521.5000000000;70.1797790527
522.0000000000;70.3699569702
522.5000000000;70.5680618286
523.0000000000;70.7541503906
523.5000000000;70.9442062378
524.0000000000;71.1419525146
524.5000000000;71.3147888184
525.0000000000;71.4707031250
525.5000000000;71.6388931274
526.0000000000;71.8126907349
526.5000000000;71.9782867432
527.0000000000;72.1278381348
527.5000000000;72.2776412964
528.0000000000;72.4492950439
528.5000000000;72.6293945313
529.0000000000;72.8022842407
529.5000000000;72.9642944336
530.0000000000;73.1133422852
530.5000000000;73.2523574829
531.0000000000;73.4046478271
531.5000000000;73.5751724243
532.0000000000;73.7393875122
532.5000000000;73.8901214600
533.0000000000;74.0297088623
533.5000000000;74.1587066650
534.0000000000;74.2883758545
534.5000000000;74.4389724731
535.0000000000;74.5941467285
535.5000000000;74.7293853760
536.0000000000;74.8597183228
536.5000000000;74.9995117188
537.0000000000;75.1492614746
537.5000000000;75.2976989746
538.0000000000;75.4321975708
538.5000000000;75.5513763428
539.0000000000;75.6655883789
539.5000000000;75.7929153442
540.0000000000;75.9340972900
540.5000000000;76.0794143677
541.0000000000;76.2153167725
541.5000000000;76.3377532959
542.0000000000;76.4529418945
542.5000000000;76.5693893433
543.0000000000;76.6970214844
543.5000000000;76.8375167847
544.0000000000;76.9807968140
544.5000000000;77.1119461060
545.0000000000;77.2227935791
545.5000000000;77.3218154907
546.0000000000;77.4488525391
546.5000000000;77.5964584351
547.0000000000;77.7169570923
547.5000000000;77.8113708496
548.0000000000;77.9020538330
548.5000000000;78.0160293579
549.0000000000;78.1528778076
549.5000000000;78.2868804932
550.0000000000;78.4055175781
550.5000000000;78.5139465332
551.0000000000;78.6367187500
551.5000000000;78.7656936646
552.0000000000;78.8725204468
552.5000000000;78.9769134521
553.0000000000;79.0929412842
553.5000000000;79.1932067871
554.0000000000;79.2847366333
554.5000000000;79.3976211548
555.0000000000;79.5193176270
555.5000000000;79.6307220459
556.0000000000;79.7297973633
556.5000000000;79.8277664185
557.0000000000;79.9365844727
557.5000000000;80.0450744629
558.0000000000;80.1483612061
558.5000000000;80.2602157593
559.0000000000;80.3813400269
559.5000000000;80.4996261597
560.0000000000;80.5990753174
560.5000000000;80.6843948364
561.0000000000;80.7841491699
561.5000000000;80.8903198242
562.0000000000;80.9847488403
562.5000000000;81.0888137817
563.0000000000;81.2066726685
563.5000000000;81.3134536743
564.0000000000;81.4101638794
564.5000000000;81.5069961548
565.0000000000;81.6019287109
565.5000000000;81.7000350952
566.0000000000;81.8133773804
566.5000000000;81.9331130981
567.0000000000;82.0453948975
567.5000000000;82.1544876099
568.0000000000;82.2493438721
568.5000000000;82.2951889038
569.0000000000;82.2874221802
569.5000000000;82.2711791992
570.0000000000;82.3579254150
570.5000000000;82.5025939941
571.0000000000;82.5027542114
571.5000000000;82.2955932617
572.0000000000;82.1216888428
572.5000000000;82.3699951172
573.0000000000;82.8460998535
573.5000000000;83.0872039795
574.0000000000;83.0834503174
574.5000000000;82.9871826172
575.0000000000;82.9946975708
575.5000000000;83.1053771973
576.0000000000;83.2073822021
576.5000000000;83.4075851440
577.0000000000;83.6637725830
577.5000000000;83.6328811646
578.0000000000;83.5160980225
578.5000000000;83.7271881104
579.0000000000;84.1310043335
579.5000000000;84.4225082397
580.0000000000;84.3608398438
580.5000000000;84.1511840820
581.0000000000;84.0936965942
581.5000000000;83.9349594116
582.0000000000;83.7005081177
582.5000000000;83.7737884521
583.0000000000;84.0777740479
583.5000000000;84.2921905518
584.0000000000;84.3113174438
584.5000000000;84.2457351685
585.0000000000;84.3055725098
585.5000000000;84.4396133423
586.0000000000;84.5395584106
586.5000000000;84.6492004395
587.0000000000;84.7677841187
587.5000000000;84.8337249756
588.0000000000;84.8517608643
588.5000000000;84.8703079224
589.0000000000;84.9700546265
589.5000000000;85.1421661377
590.0000000000;85.2896118164
590.5000000000;85.3932418823
591.0000000000;85.4699783325
591.5000000000;85.5351638794
592.0000000000;85.6228332520
592.5000000000;85.7480163574
593.0000000000;85.8099517822
593.5000000000;85.8160705566
594.0000000000;85.9536285400
594.5000000000;86.1306152344
595.0000000000;86.1592788696
595.5000000000;86.1977386475
596.0000000000;86.3431396484
596.5000000000;86.4973373413
597.0000000000;86.6059799194
597.5000000000;86.6790313721
598.0000000000;86.7863693237
598.5000000000;86.9301910400
599.0000000000;87.0265655518
599.5000000000;87.1077728271
600.0000000000;87.2209930420
600.5000000000;87.2932281494
601.0000000000;87.3139038086
601.5000000000;87.3541259766
602.0000000000;87.4588470459
602.5000000000;87.6083679199
603.0000000000;87.6781692505
603.5000000000;87.6810531616
604.0000000000;87.7343978882
604.5000000000;87.8500823975
605.0000000000;87.9764633179
605.5000000000;88.0434722900
606.0000000000;88.0686340332
606.5000000000;88.1091766357
607.0000000000;88.1496353149
607.5000000000;88.1813125610
608.0000000000;88.2302398682
608.5000000000;88.2925033569
609.0000000000;88.3442611694
609.5000000000;88.3591003418
610.0000000000;88.3523788452
610.5000000000;88.3842849731
611.0000000000;88.4308013916
611.5000000000;88.4487533569
612.0000000000;88.4698181152
612.5000000000;88.5036163330
613.0000000000;88.5235595703
613.5000000000;88.5329742432
614.0000000000;88.5480041504
614.5000000000;88.5809707642
615.0000000000;88.6170043945
615.5000000000;88.6264877319
616.0000000000;88.6514511108
616.5000000000;88.7219314575
617.0000000000;88.7897491455
617.5000000000;88.8155059814
618.0000000000;88.7973022461
618.5000000000;88.8088531494
619.0000000000;88.8711929321
619.5000000000;88.8915252686
620.0000000000;88.8831863403
620.5000000000;88.9157485962
621.0000000000;89.0016479492
621.5000000000;89.0949859619
622.0000000000;89.1086807251
622.5000000000;89.0961456299
623.0000000000;89.1417694092
623.5000000000;89.2130508423
624.0000000000;89.2745208740
624.5000000000;89.3185882568
625.0000000000;89.3991622925
625.5000000000;89.5331115723
626.0000000000;89.5950546265
626.5000000000;89.5942535400
627.0000000000;89.6498184204
627.5000000000;89.7139511108
628.0000000000;89.7453765869
628.5000000000;89.8170623779
629.0000000000;89.9095535278
629.5000000000;89.9550247192
630.0000000000;90.0040740967
630.5000000000;90.0934982300
631.0000000000;90.1887969971
631.5000000000;90.2633590698
632.0000000000;90.3087844849
632.5000000000;90.3439254761
633.0000000000;90.3865203857
633.5000000000;90.4439315796
634.0000000000;90.5078659058
634.5000000000;90.5658340454
635.0000000000;90.6142654419
635.5000000000;90.6551895142
636.0000000000;90.6939468384
636.5000000000;90.7281875610
637.0000000000;90.7560882568
637.5000000000;90.7829742432
638.0000000000;90.8231735229
638.5000000000;90.8896865845
639.0000000000;90.9547653198
639.5000000000;90.9945449829
640.0000000000;91.0147323608
640.5000000000;91.0384368896
641.0000000000;91.0848693848
641.5000000000;91.1241836548
642.0000000000;91.1443710327
642.5000000000;91.1697616577
643.0000000000;91.1926651001
643.5000000000;91.2003555298
644.0000000000;91.2151794434
644.5000000000;91.2452697754
645.0000000000;91.2776260376
645.5000000000;91.3043212891
646.0000000000;91.3225326538
646.5000000000;91.3347320557
647.0000000000;91.3500518799
647.5000000000;91.3768539429
648.0000000000;91.3941726685
648.5000000000;91.3934020996
649.0000000000;91.4013290405
649.5000000000;91.4260711670
650.0000000000;91.4591827393
650.5000000000;91.4854583740
651.0000000000;91.4990005493
651.5000000000;91.5090942383
652.0000000000;91.5251541138
652.5000000000;91.5521087646
653.0000000000;91.5833053589
653.5000000000;91.6073989868
654.0000000000;91.6132202148
654.5000000000;91.6197662354
655.0000000000;91.7699813843
655.5000000000;92.0647811890
656.0000000000;91.8334808350
656.5000000000;90.6036758423
657.0000000000;89.2771911621
657.5000000000;90.9126281738
658.0000000000;92.1606216431
658.5000000000;91.8815002441
659.0000000000;91.9030685425
659.5000000000;92.0722274780
660.0000000000;92.1021270752
660.5000000000;92.1348114014
661.0000000000;92.1863098145
661.5000000000;92.2232513428
662.0000000000;92.2862777710
662.5000000000;92.3615417480
663.0000000000;92.3876342773
663.5000000000;92.4192504883
664.0000000000;92.5015411377
664.5000000000;92.5726852417
665.0000000000;92.6171722412
665.5000000000;92.6654586792
666.0000000000;92.7416458130
666.5000000000;92.8372726440
667.0000000000;92.9015808105
667.5000000000;92.9410781860
668.0000000000;92.9869079590
668.5000000000;93.0313796997
669.0000000000;93.0684051514
669.5000000000;93.1041564941
670.0000000000;93.1485443115
670.5000000000;93.2029647827
671.0000000000;93.2461318970
671.5000000000;93.2790374756
672.0000000000;93.3211669922
672.5000000000;93.3666305542
673.0000000000;93.4062728882
673.5000000000;93.4405517578
674.0000000000;93.4775238037
674.5000000000;93.5257186890
675.0000000000;93.5781173706
675.5000000000;93.6228942871
676.0000000000;93.6503448486
676.5000000000;93.6794433594
677.0000000000;93.7266769409
677.5000000000;93.7638092041
678.0000000000;93.7863159180
678.5000000000;93.8167419434
679.0000000000;93.8491744995
679.5000000000;93.8726730347
680.0000000000;93.8904647827
680.5000000000;93.9177322388
681.0000000000;93.9654541016
681.5000000000;93.9955444336
682.0000000000;93.9975585938
682.5000000000;94.0165328979
683.0000000000;94.0545959473
683.5000000000;94.0889587402
684.0000000000;94.1029205322
684.5000000000;94.0902557373
685.0000000000;94.0592193604
685.5000000000;94.0489730835
686.0000000000;94.0865554810
686.5000000000;94.1454544067
687.0000000000;94.1856765747
687.5000000000;94.1809387207
688.0000000000;94.1875610352
688.5000000000;94.2278289795
689.0000000000;94.2380828857
689.5000000000;94.2227478027
690.0000000000;94.2195739746
690.5000000000;94.2257766724
691.0000000000;94.2301940918
691.5000000000;94.2254257202
692.0000000000;94.2300033569
692.5000000000;94.2532730103
693.0000000000;94.2600097656
693.5000000000;94.2605743408
694.0000000000;94.2948989868
694.5000000000;94.3310394287
695.0000000000;94.3467712402
695.5000000000;94.3718872070
696.0000000000;94.4042053223
696.5000000000;94.4225311279
697.0000000000;94.4225769043
697.5000000000;94.4240646362
698.0000000000;94.4632949829
698.5000000000;94.5196838379
699.0000000000;94.5603713989
699.5000000000;94.5893173218
700.0000000000;94.6153640747
700.5000000000;94.6458892822
701.0000000000;94.6865539551
701.5000000000;94.7325973511
702.0000000000;94.7641143799
702.5000000000;94.7837753296
703.0000000000;94.8099365234
703.5000000000;94.8608398438
704.0000000000;94.9216766357
704.5000000000;94.9485397339
705.0000000000;94.9712524414
705.5000000000;95.0213470459
706.0000000000;95.0565872192
706.5000000000;95.0713272095
707.0000000000;95.0950698853
707.5000000000;95.1281356812
708.0000000000;95.1688919067
708.5000000000;95.2255096436
709.0000000000;95.2896652222
709.5000000000;95.3463973999
710.0000000000;95.3912277222
710.5000000000;95.4286041260
711.0000000000;95.4701156616
711.5000000000;95.5139160156
712.0000000000;95.5532150269
712.5000000000;95.5853576660
713.0000000000;95.6118469238
713.5000000000;95.6385345459
714.0000000000;95.6783142090
714.5000000000;95.7300720215
715.0000000000;95.7696838379
715.5000000000;95.7986450195
716.0000000000;95.8347320557
716.5000000000;95.8933334351
717.0000000000;95.9652328491
717.5000000000;96.0201797485
718.0000000000;96.0574798584
718.5000000000;96.0896759033
719.0000000000;96.1303863525
719.5000000000;96.1851348877
720.0000000000;96.2500991821
720.5000000000;96.3057174683
721.0000000000;96.3450241089
721.5000000000;96.3844985962
722.0000000000;96.4269561768
722.5000000000;96.4696655273
723.0000000000;96.5161590576
723.5000000000;96.5576324463
724.0000000000;96.5798950195
724.5000000000;96.6057586670
725.0000000000;96.6445236206
725.5000000000;96.6609954834
726.0000000000;96.6675262451
726.5000000000;96.6974334717
727.0000000000;96.7323837280
727.5000000000;96.7656936646
728.0000000000;96.8169021606
728.5000000000;96.8668060303
729.0000000000;96.8943176270
729.5000000000;96.9183959961
730.0000000000;96.9400787354
730.5000000000;96.9441070557
731.0000000000;96.9402160645
731.5000000000;96.9500808716
732.0000000000;96.9977798462
732.5000000000;97.0594787598
733.0000000000;97.0948638916
733.5000000000;97.1058578491
734.0000000000;97.1032409668
734.5000000000;97.0972366333
735.0000000000;97.0932083130
735.5000000000;97.0987243652
736.0000000000;97.1279678345
736.5000000000;97.1689987183
737.0000000000;97.1963882446
737.5000000000;97.2158660889
738.0000000000;97.2434692383
738.5000000000;97.2904357910
739.0000000000;97.3117294312
739.5000000000;97.2765274048
740.0000000000;97.2547760010
740.5000000000;97.2691879272
741.0000000000;97.2908401489
741.5000000000;97.3172531128
742.0000000000;97.3446960449
742.5000000000;97.3558502197
743.0000000000;97.3650054932
743.5000000000;97.3914489746
744.0000000000;97.4062500000
744.5000000000;97.4029464722
745.0000000000;97.4075927734
745.5000000000;97.4213867188
746.0000000000;97.4374771118
746.5000000000;97.4538192749
747.0000000000;97.4552917480
747.5000000000;97.4318084717
748.0000000000;97.4333038330
748.5000000000;97.4735641479
749.0000000000;97.5023269653
749.5000000000;97.5168609619
750.0000000000;97.5267562866
750.5000000000;97.5107040405
751.0000000000;97.5007019043
751.5000000000;97.5557250977
752.0000000000;97.6067886353
752.5000000000;97.6029129028
753.0000000000;97.5871582031
753.5000000000;97.5744476318
754.0000000000;97.5686035156
754.5000000000;97.6052856445
755.0000000000;97.6706466675
755.5000000000;97.6996994019
756.0000000000;97.6815414429
756.5000000000;97.6411590576
757.0000000000;97.6256561279
757.5000000000;97.6349868774
758.0000000000;97.6456756592
758.5000000000;97.6700897217
759.0000000000;97.7104339600
759.5000000000;97.7495574951
760.0000000000;97.7944030762
760.5000000000;97.8468551636
761.0000000000;97.8742294312
761.5000000000;97.9018936157
762.0000000000;97.9794845581
762.5000000000;98.0386886597
763.0000000000;98.0393371582
763.5000000000;98.0290985107
764.0000000000;98.0439758301
764.5000000000;98.0904769897
765.0000000000;98.1246490479
765.5000000000;98.1549606323
766.0000000000;98.2260437012
766.5000000000;98.2969436646
767.0000000000;98.3357620239
767.5000000000;98.3654556274
768.0000000000;98.3669891357
768.5000000000;98.3248519897
769.0000000000;98.3044891357
769.5000000000;98.3438644409
770.0000000000;98.4341964722
770.5000000000;98.5213623047
771.0000000000;98.5655746460
771.5000000000;98.5897216797
772.0000000000;98.6322250366
772.5000000000;98.7106628418
773.0000000000;98.7596740723
773.5000000000;98.7667770386
774.0000000000;98.7901916504
774.5000000000;98.8477172852
775.0000000000;98.9225769043
775.5000000000;98.9670333862
776.0000000000;98.9804153442
776.5000000000;98.9944534302
777.0000000000;99.0257339478
777.5000000000;99.0697708130
778.0000000000;99.1026535034
778.5000000000;99.1160736084
779.0000000000;99.1120452881
779.5000000000;99.0998077393
780.0000000000;99.1071929932
780.5000000000;99.1574707031
781.0000000000;99.1992874146
781.5000000000;99.2112503052
782.0000000000;99.2338333130
782.5000000000;99.2580413818
783.0000000000;99.2686538696
783.5000000000;99.2950897217
784.0000000000;99.3424377441
784.5000000000;99.3915176392
785.0000000000;99.4263610840
785.5000000000;99.4449691772
786.0000000000;99.4648361206
786.5000000000;99.4956130981
787.0000000000;99.5338439941
787.5000000000;99.5574035645
788.0000000000;99.5573425293
788.5000000000;99.5433273315
789.0000000000;99.5468215942
789.5000000000;99.5785064697
790.0000000000;99.6104583740
790.5000000000;99.6302337646
791.0000000000;99.6427993774
791.5000000000;99.6707305908
792.0000000000;99.7088088989
792.5000000000;99.7300109863
793.0000000000;99.7420425415
793.5000000000;99.7437820435
794.0000000000;99.7109909058
794.5000000000;99.6902770996
795.0000000000;99.7308578491
795.5000000000;99.7821426392
796.0000000000;99.8179550171
796.5000000000;99.8487472534
797.0000000000;99.8684616089
797.5000000000;99.8720016479
798.0000000000;99.8649063110
798.5000000000;99.8571090698
799.0000000000;99.8611907959
799.5000000000;99.8892822266
800.0000000000;99.9223251343
800.5000000000;99.9238357544
801.0000000000;99.9225997925
801.5000000000;99.9374237061
802.0000000000;99.9413681030
802.5000000000;99.9563217163
803.0000000000;100.0038681030
803.5000000000;100.0198516846
804.0000000000;100.0047531128
804.5000000000;100.0207672119
805.0000000000;100.0497512817
805.5000000000;100.0558929443
806.0000000000;100.0246505737
806.5000000000;99.9921340942
807.0000000000;100.0022506714
807.5000000000;100.0419158936
808.0000000000;100.0778961182
808.5000000000;100.0799865723
809.0000000000;100.0808181763
809.5000000000;100.1003112793
810.0000000000;100.1078796387
810.5000000000;100.1020965576
811.0000000000;100.0990982056
811.5000000000;100.1086730957
812.0000000000;100.1278762817
812.5000000000;100.1433639526
813.0000000000;100.1459503174
813.5000000000;100.1379547119
814.0000000000;100.1360244751
814.5000000000;100.1467895508
815.0000000000;100.1651763916
815.5000000000;100.1716842651
816.0000000000;100.1695022583
816.5000000000;100.1800231934
817.0000000000;100.2024383545
817.5000000000;100.2266235352
818.0000000000;100.2408981323
818.5000000000;100.2508163452
819.0000000000;100.2639389038
819.5000000000;100.2697601318
820.0000000000;100.2617950439
820.5000000000;100.2454376221
821.0000000000;100.2504653931
821.5000000000;100.2795715332
822.0000000000;100.2925491333
822.5000000000;100.2941207886
823.0000000000;100.3013076782
823.5000000000;100.3030624390
824.0000000000;100.3020477295
824.5000000000;100.3113250732
825.0000000000;100.3262710571
825.5000000000;100.3411254883
826.0000000000;100.3542404175
826.5000000000;100.3591461182
827.0000000000;100.3534164429
827.5000000000;100.3492584229
828.0000000000;100.3638916016
828.5000000000;100.4050827026
829.0000000000;100.4349441528
829.5000000000;100.4407119751
830.0000000000;100.4515151978
830.5000000000;100.4720382690
831.0000000000;100.4898605347
831.5000000000;100.4835891724
832.0000000000;100.4629592896
832.5000000000;100.4535980225
833.0000000000;100.4587631226
833.5000000000;100.4754409790
834.0000000000;100.4932861328
834.5000000000;100.4698333740
835.0000000000;100.4163818359
835.5000000000;100.4477310181
836.0000000000;100.5107650757
836.5000000000;100.5002059937
837.0000000000;100.4970397949
837.5000000000;100.5247344971
838.0000000000;100.5268325806
838.5000000000;100.5220184326
839.0000000000;100.5296554565
839.5000000000;100.5305328369
840.0000000000;100.5314483643
840.5000000000;100.5439071655
841.0000000000;100.5497512817
841.5000000000;100.5464706421
842.0000000000;100.5462722778
842.5000000000;100.5443801880
843.0000000000;100.5459136963
843.5000000000;100.5710906982
844.0000000000;100.5920028687
844.5000000000;100.5866851807
845.0000000000;100.5968017578
845.5000000000;100.6141815186
846.0000000000;100.6051940918
846.5000000000;100.6120834351
847.0000000000;100.6367721558
847.5000000000;100.6228332520
848.0000000000;100.6110458374
848.5000000000;100.6343002319
849.0000000000;100.6336898804
849.5000000000;100.6104125977
850.0000000000;100.6034317017
850.5000000000;100.6194763184
851.0000000000;100.6265182495
851.5000000000;100.5796356201
852.0000000000;100.5469436646
852.5000000000;100.5620193481
853.0000000000;100.5479049683
853.5000000000;100.5029830933
854.0000000000;100.4702835083
854.5000000000;100.4874572754
855.0000000000;100.5319213867
855.5000000000;100.5444335938
856.0000000000;100.5401153564
856.5000000000;100.5389556885
857.0000000000;100.5382537842
857.5000000000;100.5388641357
858.0000000000;100.5418472290
858.5000000000;100.5432205200
859.0000000000;100.5407104492
859.5000000000;100.5371017456
860.0000000000;100.5468521118
860.5000000000;100.5647201538
861.0000000000;100.5652160645
861.5000000000;100.5582427979
862.0000000000;100.5578079224
862.5000000000;100.5607223511
863.0000000000;100.5663757324
863.5000000000;100.5716705322
864.0000000000;100.5606307983
864.5000000000;100.5496215820
865.0000000000;100.5707855225
865.5000000000;100.5748901367
866.0000000000;100.5437240601
866.5000000000;100.5317306519
867.0000000000;100.5287170410
867.5000000000;100.5158538818
868.0000000000;100.5283203125
868.5000000000;100.5470962524
869.0000000000;100.5317840576
869.5000000000;100.5345611572
870.0000000000;100.5615692139
870.5000000000;100.5528411865
871.0000000000;100.5262985229
871.5000000000;100.5186691284
872.0000000000;100.5399703979
872.5000000000;100.5427780151
873.0000000000;100.4954605103
873.5000000000;100.4949035645
874.0000000000;100.5330963135
874.5000000000;100.5183486938
875.0000000000;100.5056915283
875.5000000000;100.5307312012
876.0000000000;100.5457458496
876.5000000000;100.5435791016
877.0000000000;100.5427703857
877.5000000000;100.5659790039
878.0000000000;100.5829086304
878.5000000000;100.5506362915
879.0000000000;100.5120162964
879.5000000000;100.5123062134
880.0000000000;100.5665206909
880.5000000000;100.6136245728
881.0000000000;100.6154861450
881.5000000000;100.6150894165
882.0000000000;100.6184387207
882.5000000000;100.6137313843
883.0000000000;100.6066284180
883.5000000000;100.6022033691
884.0000000000;100.6063842773
884.5000000000;100.6388549805
885.0000000000;100.6826629639
885.5000000000;100.6843109131
886.0000000000;100.6800918579
886.5000000000;100.6995239258
887.0000000000;100.6946716309
887.5000000000;100.6673202515
888.0000000000;100.6470108032
888.5000000000;100.6395034790
889.0000000000;100.6390533447
889.5000000000;100.6369705200
890.0000000000;100.6430816650
890.5000000000;100.6608505249
891.0000000000;100.6774826050
891.5000000000;100.6832885742
892.0000000000;100.6830978394
892.5000000000;100.7046890259
893.0000000000;100.7398986816
893.5000000000;100.7551956177
894.0000000000;100.7250518799
894.5000000000;100.6874084473
895.0000000000;100.7162246704
895.5000000000;100.7502441406
896.0000000000;100.7466659546
896.5000000000;100.7511291504
897.0000000000;100.7748260498
897.5000000000;100.8023376465
898.0000000000;100.8067398071
898.5000000000;100.7969360352
899.0000000000;100.7937622070
899.5000000000;100.7675094604
900.0000000000;100.7529830933
900.5000000000;100.8345413208
901.0000000000;100.9175643921
901.5000000000;100.9149093628
902.0000000000;100.8564147949
902.5000000000;100.8396911621
903.0000000000;100.9026336670
903.5000000000;100.8810653687
904.0000000000;100.8101425171
904.5000000000;100.8353881836
905.0000000000;100.8755264282
905.5000000000;100.8883895874
906.0000000000;100.9206695557
906.5000000000;100.9580612183
907.0000000000;100.9705734253
907.5000000000;100.9458923340
908.0000000000;100.9242706299
908.5000000000;100.9417343140
909.0000000000;100.9628067017
909.5000000000;100.9786605835
910.0000000000;100.9990615845
910.5000000000;100.9965438843
911.0000000000;100.9649887085
911.5000000000;100.9362411499
912.0000000000;100.9678573608
912.5000000000;101.0502853394
913.0000000000;101.0667648315
913.5000000000;101.0391540527
914.0000000000;101.0392379761
914.5000000000;101.0678710938
915.0000000000;101.0775985718
915.5000000000;101.0283203125
916.0000000000;101.0003585815
916.5000000000;101.0231170654
917.0000000000;101.0493621826
917.5000000000;101.0717926025
918.0000000000;101.1047821045
918.5000000000;101.1650543213
919.0000000000;101.1969604492
919.5000000000;101.1740875244
920.0000000000;101.2121200562
920.5000000000;101.2721557617
921.0000000000;101.2488250732
921.5000000000;101.2332992554
922.0000000000;101.2453994751
922.5000000000;101.2135696411
923.0000000000;101.1994934082
923.5000000000;101.2499923706
924.0000000000;101.3244552612
924.5000000000;101.3691940308
925.0000000000;101.3552780151
925.5000000000;101.3122482300
926.0000000000;101.2915420532
926.5000000000;101.3168411255
927.0000000000;101.3028869629
927.5000000000;101.2986755371
928.0000000000;101.4259948730
928.5000000000;101.4659729004
929.0000000000;101.3531036377
929.5000000000;101.3333358765
930.0000000000;101.4296417236
930.5000000000;101.5502243042
931.0000000000;101.5910034180
931.5000000000;101.5481796265
932.0000000000;101.4878921509
932.5000000000;101.4910964966
933.0000000000;101.5358505249
933.5000000000;101.5423660278
934.0000000000;101.5612411499
934.5000000000;101.5739974976
935.0000000000;101.4874191284
935.5000000000;101.4903182983
936.0000000000;101.6544265747
936.5000000000;101.7085418701
937.0000000000;101.6690368652
937.5000000000;101.6550064087
938.0000000000;101.6303482056
938.5000000000;101.6191940308
939.0000000000;101.6693344116
939.5000000000;101.7051315308
940.0000000000;101.7299041748
940.5000000000;101.8179016113
941.0000000000;101.8595581055
941.5000000000;101.8165283203
942.0000000000;101.8131332397
942.5000000000;101.8212280273
943.0000000000;101.8093261719
943.5000000000;101.8698654175
944.0000000000;101.9300537109
944.5000000000;101.8890914917
945.0000000000;101.8761138916
945.5000000000;101.9532241821
946.0000000000;102.0727462769
946.5000000000;102.1269226074
947.0000000000;102.1026687622
947.5000000000;102.0978164673
948.0000000000;102.1063613892
948.5000000000;102.0984268188
949.0000000000;102.0762405396
949.5000000000;102.0897064209
950.0000000000;102.1598587036
950.5000000000;102.1963500977
951.0000000000;102.1697158813
951.5000000000;102.1290664673
952.0000000000;102.1914367676
952.5000000000;102.3133239746
953.0000000000;102.3414840698
953.5000000000;102.3796310425
954.0000000000;102.4598617554
954.5000000000;102.4558410645
955.0000000000;102.4492416382
955.5000000000;102.5041275024
956.0000000000;102.5150375366
956.5000000000;102.5182723999
957.0000000000;102.5922317505
957.5000000000;102.7024230957
958.0000000000;102.7645797729
958.5000000000;102.7302169800
959.0000000000;102.7448959351
959.5000000000;102.8086776733
960.0000000000;102.7828826904
960.5000000000;102.7462387085
961.0000000000;102.7734756470
961.5000000000;102.8386154175
962.0000000000;102.8668975830
962.5000000000;102.8448028564
963.0000000000;102.8807220459
963.5000000000;102.9151840210
964.0000000000;102.8839340210
964.5000000000;102.9376449585
965.0000000000;103.0154495239
965.5000000000;102.9763946533
966.0000000000;103.0055236816
966.5000000000;103.0969772339
967.0000000000;103.0540771484
967.5000000000;102.9823913574
968.0000000000;102.9884948730
968.5000000000;103.0480499268
969.0000000000;103.0446319580
969.5000000000;102.9610366821
970.0000000000;102.9793777466
970.5000000000;103.0104446411
971.0000000000;102.9518737793
971.5000000000;103.0145416260
972.0000000000;103.1391143799
972.5000000000;103.1310119629
973.0000000000;103.0778884888
973.5000000000;103.0609893799
974.0000000000;103.0927886963
974.5000000000;103.1457443237
975.0000000000;103.1778869629
975.5000000000;103.1524505615
976.0000000000;103.0986785889
976.5000000000;103.0949325562
977.0000000000;103.2181777954
977.5000000000;103.2222366333
978.0000000000;103.0161209106
978.5000000000;103.1082534790
979.0000000000;103.3747863770
979.5000000000;103.3965301514
980.0000000000;103.2309494019
980.5000000000;103.1175613403
981.0000000000;103.2385101318
981.5000000000;103.2650909424
982.0000000000;103.1423263550
982.5000000000;103.1642150879
983.0000000000;103.2073364258
983.5000000000;103.2096862793
984.0000000000;103.3457946777
984.5000000000;103.4563980103
985.0000000000;103.3929901123
985.5000000000;103.3112945557
986.0000000000;103.3663558960
986.5000000000;103.5570983887
987.0000000000;103.5847473145
987.5000000000;103.4683303833
988.0000000000;103.4379196167
988.5000000000;103.5549011230
989.0000000000;103.6527862549
989.5000000000;103.5122756958
990.0000000000;103.4480133057
990.5000000000;103.5479278564
991.0000000000;103.5344619751
991.5000000000;103.5044174194
992.0000000000;103.5525665283
992.5000000000;103.5645370483
993.0000000000;103.4537963867
993.5000000000;103.3065185547
994.0000000000;103.4459228516
994.5000000000;103.6261215210
995.0000000000;103.5039138794
995.5000000000;103.3677597046
996.0000000000;103.3545761108
996.5000000000;103.4058761597
997.0000000000;103.4477920532
997.5000000000;103.5682373047
998.0000000000;103.8705368042
998.5000000000;103.8783416748
999.0000000000;103.5774307251
999.5000000000;103.5743484497
1000.0000000000;103.8094787598
1000.5000000000;103.9534835815
1001.0000000000;103.7413864136
1001.5000000000;103.6327667236
1002.0000000000;103.9186019897
1002.5000000000;104.0180664063
1003.0000000000;103.9683837891
1003.5000000000;104.0505676270
1004.0000000000;104.1380310059
1004.5000000000;104.1051635742
1005.0000000000;103.9496383667
1005.5000000000;103.8935775757
1006.0000000000;103.9132308960
1006.5000000000;103.8246383667
1007.0000000000;103.8279876709
1007.5000000000;103.9565505981
1008.0000000000;103.9927062988
1008.5000000000;103.9494781494
1009.0000000000;103.8632812500
1009.5000000000;103.7300949097
1010.0000000000;103.7720184326
1010.5000000000;104.0554885864
1011.0000000000;104.2447433472
1011.5000000000;104.2520294189
1012.0000000000;104.1663665771
1012.5000000000;104.1227416992
1013.0000000000;104.1783142090
1013.5000000000;104.2834396362
1014.0000000000;104.2593841553
1014.5000000000;104.1318511963
1015.0000000000;104.1066513062
1015.5000000000;104.3834075928
1016.0000000000;104.6968612671
1016.5000000000;104.5293045044
1017.0000000000;104.2086181641
1017.5000000000;104.1127090454
1018.0000000000;104.2960357666
1018.5000000000;104.2403869629
1019.0000000000;103.9041213989
1019.5000000000;104.0742797852
