182.5000000000;0.9324797988
183.0000000000;0.9861551523
183.5000000000;1.0300611258
184.0000000000;1.0540486574
184.5000000000;1.0598698854
185.0000000000;1.1069287062
185.5000000000;1.2180640697
186.0000000000;1.2874754667
186.5000000000;1.3946105242
187.0000000000;1.6838637590
187.5000000000;1.9187672138
188.0000000000;2.0077269077
188.5000000000;2.1422083378
189.0000000000;2.3601031303
189.5000000000;2.4879481792
190.0000000000;2.5210115910
190.5000000000;2.5601072311
191.0000000000;2.6368892193
191.5000000000;2.7227768898
192.0000000000;2.7421243191
192.5000000000;2.7101252079
193.0000000000;2.7515189648
193.5000000000;2.8323731422
194.0000000000;2.8327233791
194.5000000000;2.8148345947
195.0000000000;2.8378214836
195.5000000000;2.8644552231
196.0000000000;2.8813645840
196.5000000000;2.9132368565
197.0000000000;2.9538991451
197.5000000000;2.9815206528
198.0000000000;2.9845972061
198.5000000000;2.9832246304
199.0000000000;3.0237538815
199.5000000000;3.0976381302
200.0000000000;3.1571996212
200.5000000000;3.1680049896
201.0000000000;3.1448333263
201.5000000000;3.1552393436
202.0000000000;3.1926453114
202.5000000000;3.2020995617
203.0000000000;3.2100458145
203.5000000000;3.2481396198
204.0000000000;3.2715706825
204.5000000000;3.2537312508
205.0000000000;3.2186446190
205.5000000000;3.1973795891
206.0000000000;3.2121498585
206.5000000000;3.2468051910
207.0000000000;3.2636651993
207.5000000000;3.2147209644
208.0000000000;3.1474876404
208.5000000000;3.1358151436
209.0000000000;3.1398882866
209.5000000000;3.1224637032
210.0000000000;3.1399185658
210.5000000000;3.1918172836
211.0000000000;3.1883351803
211.5000000000;3.1232864857
212.0000000000;3.0587360859
212.5000000000;3.0754001141
213.0000000000;3.1731741428
213.5000000000;3.1889753342
214.0000000000;3.1344873905
214.5000000000;3.1388924122
215.0000000000;3.1846802235
215.5000000000;3.2280259132
216.0000000000;3.2401390076
216.5000000000;3.2337667942
217.0000000000;3.2487215996
217.5000000000;3.2737174034
218.0000000000;3.2857549191
218.5000000000;3.2907304764
219.0000000000;3.3051879406
219.5000000000;3.3480587006
220.0000000000;3.3780508041
220.5000000000;3.3455977440
221.0000000000;3.3382656574
221.5000000000;3.3939275742
222.0000000000;3.4235043526
222.5000000000;3.3937439919
223.0000000000;3.3501896858
223.5000000000;3.3292992115
224.0000000000;3.3367900848
224.5000000000;3.3188683987
225.0000000000;3.2797396183
225.5000000000;3.2831127644
226.0000000000;3.3149302006
226.5000000000;3.3230593204
227.0000000000;3.2869591713
227.5000000000;3.2354371548
228.0000000000;3.2314314842
228.5000000000;3.2555868626
229.0000000000;3.2436959743
229.5000000000;3.2186112404
230.0000000000;3.2111334801
230.5000000000;3.2134509087
231.0000000000;3.2109582424
231.5000000000;3.1914811134
232.0000000000;3.1745867729
232.5000000000;3.1848356724
233.0000000000;3.2339262962
233.5000000000;3.2799894810
234.0000000000;3.2186412811
234.5000000000;3.1669611931
235.0000000000;3.2465071678
235.5000000000;3.3260831833
236.0000000000;3.2780945301
236.5000000000;3.2242882252
237.0000000000;3.2048172951
237.5000000000;3.2023928165
238.0000000000;3.2087597847
238.5000000000;3.2214655876
239.0000000000;3.2442569733
239.5000000000;3.2623205185
240.0000000000;3.2484624386
240.5000000000;3.2426164150
241.0000000000;3.2808899879
241.5000000000;3.3039932251
242.0000000000;3.2776339054
242.5000000000;3.2406961918
243.0000000000;3.2252585888
243.5000000000;3.2478294373
244.0000000000;3.2864477634
244.5000000000;3.3039016724
245.0000000000;3.2659788132
245.5000000000;3.2054896355
246.0000000000;3.1800391674
246.5000000000;3.2007091045
247.0000000000;3.2570793629
247.5000000000;3.2834703922
248.0000000000;3.2498393059
248.5000000000;3.2045967579
249.0000000000;3.1818957329
249.5000000000;3.1943018436
250.0000000000;3.2096724510
250.5000000000;3.2041838169
251.0000000000;3.1903474331
251.5000000000;3.1641204357
252.0000000000;3.1217525005
252.5000000000;3.1170175076
253.0000000000;3.1615827084
253.5000000000;3.1360750198
254.0000000000;3.0662519932
254.5000000000;3.0817210674
255.0000000000;3.1415896416
255.5000000000;3.1475892067
256.0000000000;3.0937457085
256.5000000000;3.0362646580
257.0000000000;3.0384483337
257.5000000000;3.0637576580
258.0000000000;3.0430920124
258.5000000000;3.0089898109
259.0000000000;2.9904031754
259.5000000000;2.9788768291
260.0000000000;2.9634749889
260.5000000000;2.9377515316
261.0000000000;2.9140048027
261.5000000000;2.9019641876
262.0000000000;2.8981812000
262.5000000000;2.8764910698
263.0000000000;2.8082280159
263.5000000000;2.7320852280
264.0000000000;2.6787190437
264.5000000000;2.6431820393
265.0000000000;2.6125361919
265.5000000000;2.5727221966
266.0000000000;2.5357623100
266.5000000000;2.5131180286
267.0000000000;2.4869318008
267.5000000000;2.4565205574
268.0000000000;2.4461443424
268.5000000000;2.4471433163
269.0000000000;2.4349923134
269.5000000000;2.4130017757
270.0000000000;2.3926815987
270.5000000000;2.3844857216
271.0000000000;2.3804309368
271.5000000000;2.3618862629
272.0000000000;2.3411831856
272.5000000000;2.3313939571
273.0000000000;2.3208391666
273.5000000000;2.3011252880
274.0000000000;2.2730927467
274.5000000000;2.2480516434
275.0000000000;2.2338185310
275.5000000000;2.2132258415
276.0000000000;2.1822907925
276.5000000000;2.1605980396
277.0000000000;2.1479129791
277.5000000000;2.1324348450
278.0000000000;2.1112098694
278.5000000000;2.0864815712
279.0000000000;2.0646820068
279.5000000000;2.0477461815
280.0000000000;2.0331983566
280.5000000000;2.0163435936
281.0000000000;1.9947894812
281.5000000000;1.9740253687
282.0000000000;1.9552847147
282.5000000000;1.9343197346
283.0000000000;1.9117243290
283.5000000000;1.8896420002
284.0000000000;1.8672276735
284.5000000000;1.8442473412
285.0000000000;1.8218766451
285.5000000000;1.8010653257
286.0000000000;1.7824195623
286.5000000000;1.7650452852
287.0000000000;1.7475979328
287.5000000000;1.7287855148
288.0000000000;1.7110182047
288.5000000000;1.6983814240
289.0000000000;1.6862508059
289.5000000000;1.6712826490
290.0000000000;1.6605030298
290.5000000000;1.6539568901
291.0000000000;1.6440712214
291.5000000000;1.6331425905
292.0000000000;1.6255906820
292.5000000000;1.6174842119
293.0000000000;1.6075973511
293.5000000000;1.6000802517
294.0000000000;1.5937335491
294.5000000000;1.5854892731
295.0000000000;1.5788463354
295.5000000000;1.5753278732
296.0000000000;1.5707235336
296.5000000000;1.5656368732
297.0000000000;1.5634577274
297.5000000000;1.5601834059
298.0000000000;1.5533839464
298.5000000000;1.5493034124
299.0000000000;1.5481710434
299.5000000000;1.5443491936
300.0000000000;1.5395088196
300.5000000000;1.5369038582
301.0000000000;1.5351597071
301.5000000000;1.5333929062
302.0000000000;1.5322411060
302.5000000000;1.5315953493
303.0000000000;1.5308854580
303.5000000000;1.5295674801
304.0000000000;1.5276995897
304.5000000000;1.5262346268
305.0000000000;1.5256885290
305.5000000000;1.5260317326
306.0000000000;1.5263386965
306.5000000000;1.5257592201
307.0000000000;1.5242016315
307.5000000000;1.5227748156
308.0000000000;1.5230991840
308.5000000000;1.5236828327
309.0000000000;1.5231609344
309.5000000000;1.5236636400
310.0000000000;1.5250347853
310.5000000000;1.5244044065
311.0000000000;1.5238623619
311.5000000000;1.5261063576
312.0000000000;1.5268892050
312.5000000000;1.5252596140
313.0000000000;1.5266431570
313.5000000000;1.5292840004
314.0000000000;1.5282275677
314.5000000000;1.5269339085
315.0000000000;1.5281950235
315.5000000000;1.5292855501
316.0000000000;1.5290712118
316.5000000000;1.5283300877
317.0000000000;1.5282225609
317.5000000000;1.5291905403
318.0000000000;1.5297037363
318.5000000000;1.5289576054
319.0000000000;1.5274814367
319.5000000000;1.5276739597
320.0000000000;1.5305500031
320.5000000000;1.5304327011
321.0000000000;1.5262887478
321.5000000000;1.5242753029
322.0000000000;1.5249100924
322.5000000000;1.5254998207
323.0000000000;1.5244920254
323.5000000000;1.5223416090
324.0000000000;1.5220086575
324.5000000000;1.5229862928
325.0000000000;1.5225124359
325.5000000000;1.5199645758
326.0000000000;1.5164654255
326.5000000000;1.5149928331
327.0000000000;1.5149813890
327.5000000000;1.5132468939
328.0000000000;1.5108220577
328.5000000000;1.5093976259
329.0000000000;1.5082552433
329.5000000000;1.5064983368
330.0000000000;1.5036466122
330.5000000000;1.5007997751
331.0000000000;1.4992929697
331.5000000000;1.4990774393
332.0000000000;1.4996378422
332.5000000000;1.5000911951
333.0000000000;1.4988390207
333.5000000000;1.4953203201
334.0000000000;1.4941358566
334.5000000000;1.4958357811
335.0000000000;1.4935179949
335.5000000000;1.4894878864
336.0000000000;1.4906325340
336.5000000000;1.4933826923
337.0000000000;1.4931730032
337.5000000000;1.4897477627
338.0000000000;1.4858012199
338.5000000000;1.4851026535
339.0000000000;1.4862438440
339.5000000000;1.4870606661
340.0000000000;1.4878745079
340.5000000000;1.4877905846
341.0000000000;1.4851995707
341.5000000000;1.4845322371
342.0000000000;1.4888836145
342.5000000000;1.4903527498
343.0000000000;1.4877758026
343.5000000000;1.4893274307
344.0000000000;1.4922341108
344.5000000000;1.4909474850
345.0000000000;1.4917017221
345.5000000000;1.4968017340
346.0000000000;1.4996381998
346.5000000000;1.4994022846
347.0000000000;1.4993027449
347.5000000000;1.5014555454
348.0000000000;1.5057771206
348.5000000000;1.5090545416
349.0000000000;1.5108182430
349.5000000000;1.5128635168
350.0000000000;1.5163732767
350.5000000000;1.5210298300
351.0000000000;1.5239794254
351.5000000000;1.5262483358
352.0000000000;1.5318078995
352.5000000000;1.5384749174
353.0000000000;1.5435130596
353.5000000000;1.5492920876
354.0000000000;1.5558332205
354.5000000000;1.5601522923
355.0000000000;1.5640528202
355.5000000000;1.5704259872
356.0000000000;1.5779300928
356.5000000000;1.5845810175
357.0000000000;1.5890308619
357.5000000000;1.5940206051
358.0000000000;1.6029134989
358.5000000000;1.6118515730
359.0000000000;1.6173207760
359.5000000000;1.6194788218
360.0000000000;1.6239719391
360.5000000000;1.6359546185
361.0000000000;1.6501412392
361.5000000000;1.6634446383
362.0000000000;1.6705659628
362.5000000000;1.6738728285
363.0000000000;1.6826167107
363.5000000000;1.6945033073
364.0000000000;1.7045007944
364.5000000000;1.7119482756
365.0000000000;1.7205581665
365.5000000000;1.7360860109
366.0000000000;1.7502846718
366.5000000000;1.7553564310
367.0000000000;1.7650099993
367.5000000000;1.7832397223
368.0000000000;1.7985286713
368.5000000000;1.8071204424
369.0000000000;1.8115186691
369.5000000000;1.8180429935
370.0000000000;1.8287141323
370.5000000000;1.8386405706
371.0000000000;1.8483591080
371.5000000000;1.8607867956
372.0000000000;1.8727256060
372.5000000000;1.8834809065
373.0000000000;1.8986008167
373.5000000000;1.9144501686
374.0000000000;1.9231489897
374.5000000000;1.9342927933
375.0000000000;1.9528303146
375.5000000000;1.9641698599
376.0000000000;1.9684345722
376.5000000000;1.9781756401
377.0000000000;1.9912731647
377.5000000000;2.0019464493
378.0000000000;2.0096588135
378.5000000000;2.0178945065
379.0000000000;2.0314550400
379.5000000000;2.0453770161
380.0000000000;2.0538890362
380.5000000000;2.0592329502
381.0000000000;2.0685544014
381.5000000000;2.0903811455
382.0000000000;2.1052503586
382.5000000000;2.0949292183
383.0000000000;2.0925700665
383.5000000000;2.1111755371
384.0000000000;2.1302354336
384.5000000000;2.1391775608
385.0000000000;2.1402239799
385.5000000000;2.1485593319
386.0000000000;2.1653869152
386.5000000000;2.1687633991
387.0000000000;2.1622898579
387.5000000000;2.1629123688
388.0000000000;2.1713683605
388.5000000000;2.1816306114
389.0000000000;2.1834888458
389.5000000000;2.1842482090
390.0000000000;2.1959257126
390.5000000000;2.1859216690
391.0000000000;2.1503484249
391.5000000000;2.1491935253
392.0000000000;2.1787798405
392.5000000000;2.1907429695
393.0000000000;2.1895463467
393.5000000000;2.1897041798
394.0000000000;2.1844120026
394.5000000000;2.1786823273
395.0000000000;2.1849174500
395.5000000000;2.1850342751
396.0000000000;2.1678426266
396.5000000000;2.1671802998
397.0000000000;2.1837506294
397.5000000000;2.1832940578
398.0000000000;2.1722869873
398.5000000000;2.1672317982
399.0000000000;2.1623039246
399.5000000000;2.1561682224
400.0000000000;2.1552240849
400.5000000000;2.1553139687
401.0000000000;2.1493854523
401.5000000000;2.1394453049
402.0000000000;2.1311094761
402.5000000000;2.1304192543
403.0000000000;2.1255002022
403.5000000000;2.1067752838
404.0000000000;2.1042551994
404.5000000000;2.1204135418
405.0000000000;2.1117932796
405.5000000000;2.0891005993
406.0000000000;2.0830261707
406.5000000000;2.0764291286
407.0000000000;2.0580334663
407.5000000000;2.0417921543
408.0000000000;2.0264248848
408.5000000000;2.0043382645
409.0000000000;1.9894621372
409.5000000000;1.9855661392
410.0000000000;1.9734551907
410.5000000000;1.9541375637
411.0000000000;1.9409669638
411.5000000000;1.9311504364
412.0000000000;1.9197537899
412.5000000000;1.9064217806
413.0000000000;1.8911987543
413.5000000000;1.8735041618
414.0000000000;1.8551442623
414.5000000000;1.8375751972
415.0000000000;1.8185456991
415.5000000000;1.7995893955
416.0000000000;1.7835693359
416.5000000000;1.7680641413
417.0000000000;1.7512021065
417.5000000000;1.7344708443
418.0000000000;1.7183847427
418.5000000000;1.7019010782
419.0000000000;1.6824756861
419.5000000000;1.6604073048
420.0000000000;1.6416518688
420.5000000000;1.6269512177
421.0000000000;1.6122206450
421.5000000000;1.5948097706
422.0000000000;1.5741350651
422.5000000000;1.5550631285
423.0000000000;1.5391196012
423.5000000000;1.5226249695
424.0000000000;1.5048930645
424.5000000000;1.4858223200
425.0000000000;1.4651550055
425.5000000000;1.4447311163
426.0000000000;1.4251767397
426.5000000000;1.4065477848
427.0000000000;1.3905568123
427.5000000000;1.3756866455
428.0000000000;1.3593058586
428.5000000000;1.3412517309
429.0000000000;1.3222943544
429.5000000000;1.3043714762
430.0000000000;1.2878910303
430.5000000000;1.2715458870
431.0000000000;1.2544353008
431.5000000000;1.2370979786
432.0000000000;1.2206656933
432.5000000000;1.2042076588
433.0000000000;1.1872788668
433.5000000000;1.1718164682
434.0000000000;1.1576220989
434.5000000000;1.1411688328
435.0000000000;1.1237729788
435.5000000000;1.1090146303
436.0000000000;1.0950399637
436.5000000000;1.0804026127
437.0000000000;1.0654389858
437.5000000000;1.0505019426
438.0000000000;1.0359998941
438.5000000000;1.0221972466
439.0000000000;1.0088958740
439.5000000000;0.9956027865
440.0000000000;0.9819203019
440.5000000000;0.9678899646
441.0000000000;0.9548982978
441.5000000000;0.9435768127
442.0000000000;0.9316225052
442.5000000000;0.9184311628
443.0000000000;0.9055448174
443.5000000000;0.8932332993
444.0000000000;0.8814706802
444.5000000000;0.8701912165
445.0000000000;0.8588721752
445.5000000000;0.8471723795
446.0000000000;0.8357203603
446.5000000000;0.8248206377
447.0000000000;0.8139839172
447.5000000000;0.8030782938
448.0000000000;0.7924202681
448.5000000000;0.7819615006
449.0000000000;0.7717022896
449.5000000000;0.7617796659
450.0000000000;0.7519802451
450.5000000000;0.7421036959
451.0000000000;0.7324341536
451.5000000000;0.7230413556
452.0000000000;0.7135730386
452.5000000000;0.7041911483
453.0000000000;0.6951484084
453.5000000000;0.6863238811
454.0000000000;0.6775415540
454.5000000000;0.6686176658
455.0000000000;0.6597017646
455.5000000000;0.6510906219
456.0000000000;0.6430904269
456.5000000000;0.6354904175
457.0000000000;0.6275500655
457.5000000000;0.6194916368
458.0000000000;0.6118583679
458.5000000000;0.6045293212
459.0000000000;0.5970023870
459.5000000000;0.5890884399
460.0000000000;0.5812063217
460.5000000000;0.5736711025
461.0000000000;0.5662322044
461.5000000000;0.5589514375
462.0000000000;0.5519050956
462.5000000000;0.5451328754
463.0000000000;0.5390399098
463.5000000000;0.5329546332
464.0000000000;0.5261474848
464.5000000000;0.5193406940
465.0000000000;0.5129129887
465.5000000000;0.5065239668
466.0000000000;0.5000762939
466.5000000000;0.4936690331
467.0000000000;0.4873247147
467.5000000000;0.4811794162
468.0000000000;0.4753811359
468.5000000000;0.4695637822
469.0000000000;0.4633141458
469.5000000000;0.4569646120
470.0000000000;0.4509606957
470.5000000000;0.4454725981
471.0000000000;0.4401347637
471.5000000000;0.4346556067
472.0000000000;0.4292463660
472.5000000000;0.4241118431
473.0000000000;0.4193441570
473.5000000000;0.4144932628
474.0000000000;0.4091170728
474.5000000000;0.4036990702
475.0000000000;0.3986779749
475.5000000000;0.3939705789
476.0000000000;0.3894098103
476.5000000000;0.3848344684
477.0000000000;0.3801086247
477.5000000000;0.3753378093
478.0000000000;0.3708322048
478.5000000000;0.3664637208
479.0000000000;0.3619324267
479.5000000000;0.3574738204
480.0000000000;0.3533421457
480.5000000000;0.3493809700
481.0000000000;0.3453113437
481.5000000000;0.3411075175
482.0000000000;0.3371159434
482.5000000000;0.3333426416
483.0000000000;0.3295380473
483.5000000000;0.3257327378
484.0000000000;0.3221540153
484.5000000000;0.3189541698
485.0000000000;0.3150890768
485.5000000000;0.3106793165
486.0000000000;0.3085154891
486.5000000000;0.3079961240
487.0000000000;0.3047384620
487.5000000000;0.2985693514
488.0000000000;0.2942632437
488.5000000000;0.2913925052
489.0000000000;0.2880949378
489.5000000000;0.2850046158
490.0000000000;0.2823060751
490.5000000000;0.2794340849
491.0000000000;0.2763695121
491.5000000000;0.2733131051
492.0000000000;0.2703903913
492.5000000000;0.2677243352
493.0000000000;0.2653264403
493.5000000000;0.2628474832
494.0000000000;0.2599754035
494.5000000000;0.2569536865
495.0000000000;0.2540600002
495.5000000000;0.2513985634
496.0000000000;0.2489863783
496.5000000000;0.2467922419
497.0000000000;0.2446117848
497.5000000000;0.2422596514
498.0000000000;0.2398225665
498.5000000000;0.2376978695
499.0000000000;0.2359261513
499.5000000000;0.2338486612
500.0000000000;0.2314057797
500.5000000000;0.2291340083
501.0000000000;0.2271883637
501.5000000000;0.2254427671
502.0000000000;0.2235019207
502.5000000000;0.2213550359
503.0000000000;0.2193922997
503.5000000000;0.2175478041
504.0000000000;0.2156392187
504.5000000000;0.2137441337
505.0000000000;0.2119587511
505.5000000000;0.2103056610
506.0000000000;0.2086320519
506.5000000000;0.2068388313
507.0000000000;0.2050706446
507.5000000000;0.2034577131
508.0000000000;0.2020693719
508.5000000000;0.2005960792
509.0000000000;0.1988263875
509.5000000000;0.1971202642
510.0000000000;0.1956672221
510.5000000000;0.1943716258
511.0000000000;0.1929833442
511.5000000000;0.1914392114
512.0000000000;0.1900599003
512.5000000000;0.1888130009
513.0000000000;0.1874369085
513.5000000000;0.1859267205
514.0000000000;0.1844124347
514.5000000000;0.1831310540
515.0000000000;0.1819577962
515.5000000000;0.1805913299
516.0000000000;0.1792267859
516.5000000000;0.1780221164
517.0000000000;0.1768518835
517.5000000000;0.1756795943
518.0000000000;0.1745295972
518.5000000000;0.1733594090
519.0000000000;0.1721795797
519.5000000000;0.1710996926
520.0000000000;0.1700282246
520.5000000000;0.1688107848
521.0000000000;0.1676929444
521.5000000000;0.1667587757
522.0000000000;0.1656322032
522.5000000000;0.1644027531
523.0000000000;0.1634136736
523.5000000000;0.1624795645
524.0000000000;0.1614404619
524.5000000000;0.1604194939
525.0000000000;0.1594524384
525.5000000000;0.1585056484
526.0000000000;0.1575870812
526.5000000000;0.1567063481
527.0000000000;0.1558512151
527.5000000000;0.1549684703
528.0000000000;0.1540095657
528.5000000000;0.1530259103
529.0000000000;0.1520671099
529.5000000000;0.1511360854
530.0000000000;0.1502989084
530.5000000000;0.1495891660
531.0000000000;0.1487625390
531.5000000000;0.1477772593
532.0000000000;0.1469226182
532.5000000000;0.1461748183
533.0000000000;0.1453881860
533.5000000000;0.1446280926
534.0000000000;0.1439053416
534.5000000000;0.1431258768
535.0000000000;0.1423254460
535.5000000000;0.1415724754
536.0000000000;0.1407987773
536.5000000000;0.1399793923
537.0000000000;0.1391850710
537.5000000000;0.1384634525
538.0000000000;0.1378258616
538.5000000000;0.1372265071
539.0000000000;0.1365866959
539.5000000000;0.1358251423
540.0000000000;0.1350061297
540.5000000000;0.1342342943
541.0000000000;0.1335276514
541.5000000000;0.1328793168
542.0000000000;0.1322729439
542.5000000000;0.1316583455
543.0000000000;0.1309717894
543.5000000000;0.1302056760
544.0000000000;0.1294389665
544.5000000000;0.1287795603
545.0000000000;0.1281812340
545.5000000000;0.1275553107
546.0000000000;0.1268617511
546.5000000000;0.1261596680
547.0000000000;0.1255663931
547.5000000000;0.1250590086
548.0000000000;0.1245476305
548.5000000000;0.1239144951
549.0000000000;0.1231710613
549.5000000000;0.1224506199
550.0000000000;0.1218227595
550.5000000000;0.1212492064
551.0000000000;0.1205618232
551.5000000000;0.1198406145
552.0000000000;0.1193060800
552.5000000000;0.1187759340
553.0000000000;0.1181327775
553.5000000000;0.1176153421
554.0000000000;0.1171719283
554.5000000000;0.1165698469
555.0000000000;0.1159363762
555.5000000000;0.1153966933
556.0000000000;0.1148674861
556.5000000000;0.1142968535
557.0000000000;0.1136949435
557.5000000000;0.1131550148
558.0000000000;0.1126772910
558.5000000000;0.1121017635
559.0000000000;0.1114608198
559.5000000000;0.1108914614
560.0000000000;0.1103951260
560.5000000000;0.1099136695
561.0000000000;0.1093714759
561.5000000000;0.1088076904
562.0000000000;0.1082928926
562.5000000000;0.1077741906
563.0000000000;0.1072184518
563.5000000000;0.1066509113
564.0000000000;0.1061156243
564.5000000000;0.1056322306
565.0000000000;0.1051192954
565.5000000000;0.1045681760
566.0000000000;0.1040675193
566.5000000000;0.1036116853
567.0000000000;0.1031834707
567.5000000000;0.1028334647
568.0000000000;0.1026052237
568.5000000000;0.1025187820
569.0000000000;0.1023648530
569.5000000000;0.1020154282
570.0000000000;0.1017348021
570.5000000000;0.1013793126
571.0000000000;0.1005581543
571.5000000000;0.0998677686
572.0000000000;0.0997251496
572.5000000000;0.0995056704
573.0000000000;0.0991583243
573.5000000000;0.0989767238
574.0000000000;0.0987924114
574.5000000000;0.0984371454
575.0000000000;0.0980590060
575.5000000000;0.0976826921
576.0000000000;0.0971554741
576.5000000000;0.0962106436
577.0000000000;0.0951852649
577.5000000000;0.0953044221
578.0000000000;0.0956904218
578.5000000000;0.0947243050
579.0000000000;0.0931867883
579.5000000000;0.0922637507
580.0000000000;0.0924508572
580.5000000000;0.0929774567
581.0000000000;0.0929560959
581.5000000000;0.0934586376
582.0000000000;0.0942963138
582.5000000000;0.0937699005
583.0000000000;0.0922962204
583.5000000000;0.0913957208
584.0000000000;0.0914099067
584.5000000000;0.0917425156
585.0000000000;0.0914406925
585.5000000000;0.0907553658
586.0000000000;0.0902064368
586.5000000000;0.0896342844
587.0000000000;0.0890819430
587.5000000000;0.0888414904
588.0000000000;0.0887793303
588.5000000000;0.0886034742
589.0000000000;0.0880336016
589.5000000000;0.0871370882
590.0000000000;0.0863406956
590.5000000000;0.0858396217
591.0000000000;0.0855734944
591.5000000000;0.0852732509
592.0000000000;0.0848503262
592.5000000000;0.0844166279
593.0000000000;0.0841812715
593.5000000000;0.0840252116
594.0000000000;0.0834054127
594.5000000000;0.0827194080
595.0000000000;0.0826130807
595.5000000000;0.0823713914
596.0000000000;0.0816248432
596.5000000000;0.0809186921
597.0000000000;0.0804450437
597.5000000000;0.0800681263
598.0000000000;0.0795526356
598.5000000000;0.0789190456
599.0000000000;0.0784839988
599.5000000000;0.0780940950
600.0000000000;0.0775626749
600.5000000000;0.0772568285
601.0000000000;0.0772105381
601.5000000000;0.0770515427
602.0000000000;0.0765960366
602.5000000000;0.0759523809
603.0000000000;0.0756430924
603.5000000000;0.0755858049
604.0000000000;0.0752525628
604.5000000000;0.0746532902
605.0000000000;0.0740665644
605.5000000000;0.0737544671
606.0000000000;0.0736293197
606.5000000000;0.0734501705
607.0000000000;0.0732283443
607.5000000000;0.0730180219
608.0000000000;0.0728414655
608.5000000000;0.0726061761
609.0000000000;0.0722573549
609.5000000000;0.0721299946
610.0000000000;0.0722373649
610.5000000000;0.0721282884
611.0000000000;0.0718934685
611.5000000000;0.0717790648
612.0000000000;0.0716362894
612.5000000000;0.0714484006
613.0000000000;0.0713922381
613.5000000000;0.0713853836
614.0000000000;0.0712788105
614.5000000000;0.0710437372
615.0000000000;0.0708126277
615.5000000000;0.0707828254
616.0000000000;0.0706658065
616.5000000000;0.0702692941
617.0000000000;0.0699407756
617.5000000000;0.0698349774
618.0000000000;0.0698489770
618.5000000000;0.0697577745
619.0000000000;0.0695326403
619.5000000000;0.0694853142
620.0000000000;0.0695210323
620.5000000000;0.0693489686
621.0000000000;0.0689449385
621.5000000000;0.0685400665
622.0000000000;0.0685244724
622.5000000000;0.0685885102
623.0000000000;0.0683175027
623.5000000000;0.0680071786
624.0000000000;0.0677853003
624.5000000000;0.0674732551
625.0000000000;0.0670260265
625.5000000000;0.0665492564
626.0000000000;0.0663247779
626.5000000000;0.0662511736
627.0000000000;0.0659678057
627.5000000000;0.0657033622
628.0000000000;0.0656136870
628.5000000000;0.0653636605
629.0000000000;0.0649792925
629.5000000000;0.0647036433
630.0000000000;0.0644192249
630.5000000000;0.0640262738
631.0000000000;0.0636107251
631.5000000000;0.0632789657
632.0000000000;0.0630879551
632.5000000000;0.0629404262
633.0000000000;0.0627429858
633.5000000000;0.0624585487
634.0000000000;0.0621501505
634.5000000000;0.0618978888
635.0000000000;0.0617000423
635.5000000000;0.0615465529
636.0000000000;0.0614243560
636.5000000000;0.0612771176
637.0000000000;0.0610857792
637.5000000000;0.0609380491
638.0000000000;0.0607798882
638.5000000000;0.0604858026
639.0000000000;0.0602059886
639.5000000000;0.0600493737
640.0000000000;0.0599166565
640.5000000000;0.0597520657
641.0000000000;0.0595502332
641.5000000000;0.0593459047
642.0000000000;0.0591739714
642.5000000000;0.0590531006
643.0000000000;0.0590021461
643.5000000000;0.0589956716
644.0000000000;0.0588859767
644.5000000000;0.0586783811
645.0000000000;0.0585403889
645.5000000000;0.0584700517
646.0000000000;0.0584063940
646.5000000000;0.0583231896
647.0000000000;0.0582332388
647.5000000000;0.0581657737
648.0000000000;0.0580897927
648.5000000000;0.0579964630
649.0000000000;0.0579405986
649.5000000000;0.0578945018
650.0000000000;0.0577888303
650.5000000000;0.0576222166
651.0000000000;0.0574633293
651.5000000000;0.0574272648
652.0000000000;0.0574118979
652.5000000000;0.0572841018
653.0000000000;0.0571460091
653.5000000000;0.0570618324
654.0000000000;0.0569894686
654.5000000000;0.0567073189
655.0000000000;0.0564753339
655.5000000000;0.0573554188
656.0000000000;0.0590655319
656.5000000000;0.0632390901
657.0000000000;0.0668351725
657.5000000000;0.0596725047
658.0000000000;0.0547609255
658.5000000000;0.0557200015
659.0000000000;0.0555794127
659.5000000000;0.0548860990
660.0000000000;0.0547162332
660.5000000000;0.0545508377
661.0000000000;0.0543295965
661.5000000000;0.0541661792
662.0000000000;0.0538892820
662.5000000000;0.0535533018
663.0000000000;0.0534166954
663.5000000000;0.0533249415
664.0000000000;0.0530877933
664.5000000000;0.0527654812
665.0000000000;0.0524542183
665.5000000000;0.0522123277
666.0000000000;0.0519307368
666.5000000000;0.0515777804
667.0000000000;0.0513030775
667.5000000000;0.0511281081
668.0000000000;0.0509795733
668.5000000000;0.0507650338
669.0000000000;0.0505074374
669.5000000000;0.0503396653
670.0000000000;0.0501911305
670.5000000000;0.0499756187
671.0000000000;0.0497860126
671.5000000000;0.0496205315
672.0000000000;0.0493942015
672.5000000000;0.0491615906
673.0000000000;0.0489758924
673.5000000000;0.0488062948
674.0000000000;0.0486230142
674.5000000000;0.0484122187
675.0000000000;0.0481953137
675.5000000000;0.0480147600
676.0000000000;0.0479105115
676.5000000000;0.0477688834
677.0000000000;0.0474969000
677.5000000000;0.0472652763
678.0000000000;0.0471472181
678.5000000000;0.0470695011
679.0000000000;0.0469472781
679.5000000000;0.0467711128
680.0000000000;0.0466674007
680.5000000000;0.0465669557
681.0000000000;0.0463331863
681.5000000000;0.0462082401
682.0000000000;0.0462413244
682.5000000000;0.0460912585
683.0000000000;0.0458342135
683.5000000000;0.0457053035
684.0000000000;0.0456526503
684.5000000000;0.0456661284
685.0000000000;0.0458021499
685.5000000000;0.0458499603
686.0000000000;0.0456361212
686.5000000000;0.0453099646
687.0000000000;0.0450866632
687.5000000000;0.0451059639
688.0000000000;0.0451019295
688.5000000000;0.0449252203
689.0000000000;0.0447881743
689.5000000000;0.0447859131
690.0000000000;0.0448706448
690.5000000000;0.0448328443
691.0000000000;0.0446834937
691.5000000000;0.0446753763
692.0000000000;0.0446855687
692.5000000000;0.0445663966
693.0000000000;0.0444931351
693.5000000000;0.0444446914
694.0000000000;0.0442550927
694.5000000000;0.0440671109
695.0000000000;0.0439797342
695.5000000000;0.0438628532
696.0000000000;0.0437153690
696.5000000000;0.0436185561
697.0000000000;0.0435991995
697.5000000000;0.0435755588
698.0000000000;0.0433859937
698.5000000000;0.0431277268
699.0000000000;0.0429387391
699.5000000000;0.0427597389
700.0000000000;0.0425932258
700.5000000000;0.0424885079
701.0000000000;0.0423232429
701.5000000000;0.0420698524
702.0000000000;0.0419325754
702.5000000000;0.0418755151
703.0000000000;0.0417379923
703.5000000000;0.0415014178
704.0000000000;0.0412375368
704.5000000000;0.0410619862
705.0000000000;0.0409093685
705.5000000000;0.0407188945
706.0000000000;0.0406262763
706.5000000000;0.0406144969
707.0000000000;0.0405360200
707.5000000000;0.0403684862
708.0000000000;0.0401347838
708.5000000000;0.0398695767
709.0000000000;0.0395824239
709.5000000000;0.0392897762
710.0000000000;0.0390986763
710.5000000000;0.0389945097
711.0000000000;0.0388216749
711.5000000000;0.0386087596
712.0000000000;0.0384300277
712.5000000000;0.0382728390
713.0000000000;0.0381251499
713.5000000000;0.0379778072
714.0000000000;0.0377856940
714.5000000000;0.0375549681
715.0000000000;0.0373802073
715.5000000000;0.0372487530
716.0000000000;0.0370816551
716.5000000000;0.0368151292
717.0000000000;0.0365052000
717.5000000000;0.0362999253
718.0000000000;0.0361421295
718.5000000000;0.0359458625
719.0000000000;0.0357358679
719.5000000000;0.0355147459
720.0000000000;0.0352683403
720.5000000000;0.0350404009
721.0000000000;0.0348538123
721.5000000000;0.0346761458
722.0000000000;0.0344794206
722.5000000000;0.0342659056
723.0000000000;0.0341064818
723.5000000000;0.0339963064
724.0000000000;0.0338569768
724.5000000000;0.0337069854
725.0000000000;0.0335851721
725.5000000000;0.0334974378
726.0000000000;0.0334320702
726.5000000000;0.0333563611
727.0000000000;0.0331969149
727.5000000000;0.0329571180
728.0000000000;0.0327417403
728.5000000000;0.0325941816
729.0000000000;0.0324955359
729.5000000000;0.0323572308
730.0000000000;0.0321983993
730.5000000000;0.0321259350
731.0000000000;0.0321575180
731.5000000000;0.0321841985
732.0000000000;0.0319721326
732.5000000000;0.0316379406
733.0000000000;0.0314410850
733.5000000000;0.0313917473
734.0000000000;0.0314184725
734.5000000000;0.0314312354
735.0000000000;0.0314319544
735.5000000000;0.0314047448
736.0000000000;0.0312365331
736.5000000000;0.0310174171
737.0000000000;0.0309250113
737.5000000000;0.0308193732
738.0000000000;0.0306162108
738.5000000000;0.0304292738
739.0000000000;0.0303711779
739.5000000000;0.0304659735
740.0000000000;0.0305531062
740.5000000000;0.0305148587
741.0000000000;0.0303299911
741.5000000000;0.0301596485
742.0000000000;0.0300909225
742.5000000000;0.0299869329
743.0000000000;0.0298478901
743.5000000000;0.0297606699
744.0000000000;0.0297590829
744.5000000000;0.0297758933
745.0000000000;0.0296783634
745.5000000000;0.0295561682
746.0000000000;0.0295092110
746.5000000000;0.0294693634
747.0000000000;0.0294458549
747.5000000000;0.0294768158
748.0000000000;0.0294254087
748.5000000000;0.0292825755
749.0000000000;0.0292381849
749.5000000000;0.0291887131
750.0000000000;0.0290449299
750.5000000000;0.0291051343
751.0000000000;0.0292182341
751.5000000000;0.0289376415
752.0000000000;0.0286302213
752.5000000000;0.0286236405
753.0000000000;0.0287537687
753.5000000000;0.0288635455
754.0000000000;0.0288444217
754.5000000000;0.0286258273
755.0000000000;0.0283306520
755.5000000000;0.0282335486
756.0000000000;0.0283017866
756.5000000000;0.0284112617
757.0000000000;0.0284938663
757.5000000000;0.0284902249
758.0000000000;0.0283732656
758.5000000000;0.0282283034
759.0000000000;0.0280823875
759.5000000000;0.0278752819
760.0000000000;0.0276409276
760.5000000000;0.0274558030
761.0000000000;0.0273912027
761.5000000000;0.0272734948
762.0000000000;0.0268736072
762.5000000000;0.0265844464
763.0000000000;0.0266103111
763.5000000000;0.0266521275
764.0000000000;0.0265734047
764.5000000000;0.0263965074
765.0000000000;0.0262851436
765.5000000000;0.0261508413
766.0000000000;0.0257596970
766.5000000000;0.0253689755
767.0000000000;0.0251939241
767.5000000000;0.0251359567
768.0000000000;0.0251661576
768.5000000000;0.0252777655
769.0000000000;0.0253725052
769.5000000000;0.0252758097
770.0000000000;0.0248353556
770.5000000000;0.0244210735
771.0000000000;0.0242996942
771.5000000000;0.0241924170
772.0000000000;0.0239521265
772.5000000000;0.0236163754
773.0000000000;0.0233987309
773.5000000000;0.0233439747
774.0000000000;0.0232866928
774.5000000000;0.0231270064
775.0000000000;0.0228672605
775.5000000000;0.0226507131
776.0000000000;0.0225487743
776.5000000000;0.0225324798
777.0000000000;0.0224478375
777.5000000000;0.0222627595
778.0000000000;0.0221172813
778.5000000000;0.0220483970
779.0000000000;0.0220416766
779.5000000000;0.0220762286
780.0000000000;0.0220547933
780.5000000000;0.0218879227
781.0000000000;0.0217545964
781.5000000000;0.0217081811
782.0000000000;0.0215658471
782.5000000000;0.0213961247
783.0000000000;0.0213130303
783.5000000000;0.0212362763
784.0000000000;0.0210880805
784.5000000000;0.0208508056
785.0000000000;0.0206686240
785.5000000000;0.0205971133
786.0000000000;0.0205028933
786.5000000000;0.0203530379
787.0000000000;0.0201913733
787.5000000000;0.0200961120
788.0000000000;0.0200748648
788.5000000000;0.0200759284
789.0000000000;0.0200726166
789.5000000000;0.0200316217
790.0000000000;0.0199093409
790.5000000000;0.0197776072
791.0000000000;0.0197045654
791.5000000000;0.0195887052
792.0000000000;0.0194366220
792.5000000000;0.0193473194
793.0000000000;0.0192485526
793.5000000000;0.0191676598
794.0000000000;0.0193236601
794.5000000000;0.0195022244
795.0000000000;0.0194026548
795.5000000000;0.0191515218
796.0000000000;0.0188944899
796.5000000000;0.0187209547
797.0000000000;0.0186706148
797.5000000000;0.0187044721
798.0000000000;0.0187033769
798.5000000000;0.0186889581
799.0000000000;0.0187079404
799.5000000000;0.0186456423
800.0000000000;0.0185092222
800.5000000000;0.0184270479
801.0000000000;0.0184033103
801.5000000000;0.0184023138
802.0000000000;0.0183879975
802.5000000000;0.0182864107
803.0000000000;0.0180884581
803.5000000000;0.0180168934
804.0000000000;0.0180531982
804.5000000000;0.0179675147
805.0000000000;0.0178455878
805.5000000000;0.0178257972
806.0000000000;0.0179388020
806.5000000000;0.0180384088
807.0000000000;0.0179733671
807.5000000000;0.0178468600
808.0000000000;0.0177563168
808.5000000000;0.0177265014
809.0000000000;0.0176733416
809.5000000000;0.0175508410
810.0000000000;0.0174344778
810.5000000000;0.0174130965
811.0000000000;0.0174982361
811.5000000000;0.0175011996
812.0000000000;0.0173883345
812.5000000000;0.0172882881
813.0000000000;0.0172493421
813.5000000000;0.0172658488
814.0000000000;0.0172863640
814.5000000000;0.0172168259
815.0000000000;0.0170499105
815.5000000000;0.0170562863
816.0000000000;0.0171823241
816.5000000000;0.0171231348
817.0000000000;0.0169824734
817.5000000000;0.0169194359
818.0000000000;0.0169647802
818.5000000000;0.0169570688
819.0000000000;0.0167757031
819.5000000000;0.0166439191
820.0000000000;0.0166723896
820.5000000000;0.0167938042
821.0000000000;0.0168083161
821.5000000000;0.0166716576
822.0000000000;0.0165876988
822.5000000000;0.0165785495
823.0000000000;0.0165897962
823.5000000000;0.0166231487
824.0000000000;0.0166040286
824.5000000000;0.0164472777
825.0000000000;0.0163135827
825.5000000000;0.0162853878
826.0000000000;0.0162693374
826.5000000000;0.0162752811
827.0000000000;0.0163205434
827.5000000000;0.0163256302
828.0000000000;0.0162429158
828.5000000000;0.0160900708
829.0000000000;0.0160048157
829.5000000000;0.0159704294
830.0000000000;0.0158010293
830.5000000000;0.0157130528
831.0000000000;0.0158311352
831.5000000000;0.0157813709
832.0000000000;0.0156975985
832.5000000000;0.0158905685
833.0000000000;0.0159413163
833.5000000000;0.0157326851
834.0000000000;0.0156269446
834.5000000000;0.0157553852
835.0000000000;0.0159824472
835.5000000000;0.0159101225
836.0000000000;0.0156864654
836.5000000000;0.0156478491
837.0000000000;0.0155953057
837.5000000000;0.0154994410
838.0000000000;0.0155394403
838.5000000000;0.0155428192
839.0000000000;0.0154399211
839.5000000000;0.0154794659
840.0000000000;0.0155275110
840.5000000000;0.0153979799
841.0000000000;0.0153537709
841.5000000000;0.0154308919
842.0000000000;0.0154430624
842.5000000000;0.0154168885
843.0000000000;0.0153773567
843.5000000000;0.0152759729
844.0000000000;0.0152079659
844.5000000000;0.0152413230
845.0000000000;0.0152306147
845.5000000000;0.0151781403
846.0000000000;0.0151765030
846.5000000000;0.0151414704
847.0000000000;0.0150801959
847.5000000000;0.0151298624
848.0000000000;0.0151777556
848.5000000000;0.0151278535
849.0000000000;0.0151147954
849.5000000000;0.0151431281
850.0000000000;0.0151436850
850.5000000000;0.0151463524
851.0000000000;0.0151850199
851.5000000000;0.0152597781
852.0000000000;0.0152848791
852.5000000000;0.0152855925
853.0000000000;0.0154689830
853.5000000000;0.0156358406
854.0000000000;0.0155547187
854.5000000000;0.0155226644
855.0000000000;0.0155323790
855.5000000000;0.0153429667
856.0000000000;0.0152770244
856.5000000000;0.0154316034
857.0000000000;0.0154201901
857.5000000000;0.0153502356
858.0000000000;0.0153994495
858.5000000000;0.0153734563
859.0000000000;0.0153481029
859.5000000000;0.0154979667
860.0000000000;0.0155097367
860.5000000000;0.0153246978
861.0000000000;0.0152506968
861.5000000000;0.0152419470
862.0000000000;0.0152167724
862.5000000000;0.0152706224
863.0000000000;0.0153506519
863.5000000000;0.0153656444
864.0000000000;0.0154012432
864.5000000000;0.0154358856
865.0000000000;0.0153691536
865.5000000000;0.0153500820
866.0000000000;0.0154289342
866.5000000000;0.0154277720
867.0000000000;0.0153741306
867.5000000000;0.0153577942
868.0000000000;0.0153658921
868.5000000000;0.0153648993
869.0000000000;0.0153271863
869.5000000000;0.0152666597
870.0000000000;0.0152196316
870.5000000000;0.0152285574
871.0000000000;0.0152862174
871.5000000000;0.0153323067
872.0000000000;0.0152749121
872.5000000000;0.0153348083
873.0000000000;0.0156509280
873.5000000000;0.0156452991
874.0000000000;0.0153453769
874.5000000000;0.0152980611
875.0000000000;0.0153822657
875.5000000000;0.0153728034
876.0000000000;0.0152135454
876.5000000000;0.0151139507
877.0000000000;0.0152054196
877.5000000000;0.0152196893
878.0000000000;0.0151753193
878.5000000000;0.0152690541
879.0000000000;0.0154785039
879.5000000000;0.0155880935
880.0000000000;0.0153462831
880.5000000000;0.0151604917
881.0000000000;0.0152285388
881.5000000000;0.0150694307
882.0000000000;0.0148482546
882.5000000000;0.0148983449
883.0000000000;0.0149928387
883.5000000000;0.0150689948
884.0000000000;0.0151860649
884.5000000000;0.0150642013
885.0000000000;0.0147423092
885.5000000000;0.0146889882
886.0000000000;0.0148236174
886.5000000000;0.0149063412
887.0000000000;0.0148553960
887.5000000000;0.0148634259
888.0000000000;0.0150717059
888.5000000000;0.0150342667
889.0000000000;0.0147840241
889.5000000000;0.0147748189
890.0000000000;0.0148531878
890.5000000000;0.0148091409
891.0000000000;0.0146366674
891.5000000000;0.0145971822
892.0000000000;0.0147740357
892.5000000000;0.0146931075
893.0000000000;0.0144506162
893.5000000000;0.0144374408
894.0000000000;0.0145683922
894.5000000000;0.0146305030
895.0000000000;0.0144673679
895.5000000000;0.0143693471
896.0000000000;0.0144901248
896.5000000000;0.0145785725
897.0000000000;0.0144551871
897.5000000000;0.0141883967
898.0000000000;0.0142544061
898.5000000000;0.0145695210
899.0000000000;0.0147078391
899.5000000000;0.0146136358
900.0000000000;0.0143560925
900.5000000000;0.0140619893
901.0000000000;0.0138878375
901.5000000000;0.0139331706
902.0000000000;0.0141634699
902.5000000000;0.0142483776
903.0000000000;0.0139907831
903.5000000000;0.0138495145
904.0000000000;0.0139667261
904.5000000000;0.0141357798
905.0000000000;0.0140677551
905.5000000000;0.0138258031
906.0000000000;0.0138016837
906.5000000000;0.0138993738
907.0000000000;0.0139217107
907.5000000000;0.0138214128
908.0000000000;0.0137402015
908.5000000000;0.0137773445
909.0000000000;0.0137257306
909.5000000000;0.0135819949
910.0000000000;0.0135021601
910.5000000000;0.0135142580
911.0000000000;0.0135900974
911.5000000000;0.0136606544
912.0000000000;0.0135877617
912.5000000000;0.0133429458
913.0000000000;0.0131169483
913.5000000000;0.0131180007
914.0000000000;0.0133277802
914.5000000000;0.0132380137
915.0000000000;0.0130488565
915.5000000000;0.0132879773
916.0000000000;0.0135880932
916.5000000000;0.0136075020
917.0000000000;0.0133233750
917.5000000000;0.0131132817
918.0000000000;0.0131064411
918.5000000000;0.0129067563
919.0000000000;0.0126813753
919.5000000000;0.0126661044
920.0000000000;0.0125585226
920.5000000000;0.0124216396
921.0000000000;0.0124955401
921.5000000000;0.0125512127
922.0000000000;0.0125511251
922.5000000000;0.0126748811
923.0000000000;0.0126716737
923.5000000000;0.0124047678
924.0000000000;0.0121100219
924.5000000000;0.0120138181
925.0000000000;0.0121473726
925.5000000000;0.0122025767
926.0000000000;0.0121751828
926.5000000000;0.0122260554
927.0000000000;0.0122995758
927.5000000000;0.0122383870
928.0000000000;0.0119572310
928.5000000000;0.0119441533
929.0000000000;0.0121820820
929.5000000000;0.0119169317
930.0000000000;0.0115631837
930.5000000000;0.0115594426
931.0000000000;0.0114662554
931.5000000000;0.0114589864
932.0000000000;0.0117946649
932.5000000000;0.0118190981
933.0000000000;0.0115843071
933.5000000000;0.0116105629
934.0000000000;0.0113541894
934.5000000000;0.0110089220
935.0000000000;0.0115979239
935.5000000000;0.0118976105
936.0000000000;0.0111866705
936.5000000000;0.0108777815
937.0000000000;0.0110625997
937.5000000000;0.0111706331
938.0000000000;0.0110092880
938.5000000000;0.0108011412
939.0000000000;0.0108672157
939.5000000000;0.0109608397
940.0000000000;0.0108527094
940.5000000000;0.0105467699
941.0000000000;0.0104732718
941.5000000000;0.0106214285
942.0000000000;0.0103351995
942.5000000000;0.0101552503
943.0000000000;0.0105114160
943.5000000000;0.0105812866
944.0000000000;0.0103166960
944.5000000000;0.0101302573
945.0000000000;0.0101124756
945.5000000000;0.0101694651
946.0000000000;0.0100889429
946.5000000000;0.0096581215
947.0000000000;0.0092183119
947.5000000000;0.0095130159
948.0000000000;0.0098072113
948.5000000000;0.0095652845
949.0000000000;0.0094024213
949.5000000000;0.0094220750
950.0000000000;0.0094227623
950.5000000000;0.0092432788
951.0000000000;0.0089655379
951.5000000000;0.0088242432
952.0000000000;0.0089749359
952.5000000000;0.0089791147
953.0000000000;0.0082497913
953.5000000000;0.0080079092
954.0000000000;0.0084408950
954.5000000000;0.0080519216
955.0000000000;0.0075273602
955.5000000000;0.0076913415
956.0000000000;0.0079995971
956.5000000000;0.0079522589
957.0000000000;0.0075268657
957.5000000000;0.0075294976
958.0000000000;0.0075995871
958.5000000000;0.0069514378
959.0000000000;0.0065724910
959.5000000000;0.0069108079
960.0000000000;0.0074262959
960.5000000000;0.0072490098
961.0000000000;0.0064282604
961.5000000000;0.0061736535
962.0000000000;0.0064769578
962.5000000000;0.0068005086
963.0000000000;0.0066791051
963.5000000000;0.0062436573
964.0000000000;0.0059305006
964.5000000000;0.0060604345
965.0000000000;0.0061402572
965.5000000000;0.0055783913
966.0000000000;0.0053830841
966.5000000000;0.0057775322
967.0000000000;0.0060365442
967.5000000000;0.0061657405
968.0000000000;0.0061020530
968.5000000000;0.0055862092
969.0000000000;0.0055348114
969.5000000000;0.0062203594
970.0000000000;0.0061819321
970.5000000000;0.0057915887
971.0000000000;0.0059698778
971.5000000000;0.0063713803
972.0000000000;0.0063186213
972.5000000000;0.0055603879
973.0000000000;0.0054620677
973.5000000000;0.0061161607
974.0000000000;0.0063470067
974.5000000000;0.0059577078
975.0000000000;0.0054374132
975.5000000000;0.0055436161
976.0000000000;0.0056575672
976.5000000000;0.0052930978
977.0000000000;0.0050112354
977.5000000000;0.0053455969
978.0000000000;0.0061600683
978.5000000000;0.0061901486
979.0000000000;0.0057708779
979.5000000000;0.0058175041
980.0000000000;0.0057309549
980.5000000000;0.0054109800
981.0000000000;0.0053177807
981.5000000000;0.0055629020
982.0000000000;0.0057207458
982.5000000000;0.0052186260
983.0000000000;0.0051948084
983.5000000000;0.0059741028
984.0000000000;0.0061516394
984.5000000000;0.0057269610
985.0000000000;0.0052555194
985.5000000000;0.0050505628
986.0000000000;0.0050433557
986.5000000000;0.0049035386
987.0000000000;0.0042571584
987.5000000000;0.0041569429
988.0000000000;0.0054575019
988.5000000000;0.0052829995
989.0000000000;0.0039274129
989.5000000000;0.0043086670
990.0000000000;0.0050499416
990.5000000000;0.0050868159
991.0000000000;0.0049657207
991.5000000000;0.0045662983
992.0000000000;0.0041029039
992.5000000000;0.0044675916
993.0000000000;0.0048697819
993.5000000000;0.0045360648
994.0000000000;0.0042416765
994.5000000000;0.0043948959
995.0000000000;0.0047748014
995.5000000000;0.0045025623
996.0000000000;0.0043961564
996.5000000000;0.0055736075
997.0000000000;0.0058600791
997.5000000000;0.0047441060
998.0000000000;0.0037546938
998.5000000000;0.0036672750
999.0000000000;0.0041943961
999.5000000000;0.0042790798
1000.0000000000;0.0042100651
1000.5000000000;0.0045569506
1001.0000000000;0.0054014884
1001.5000000000;0.0055595613
1002.0000000000;0.0045333072
1002.5000000000;0.0039955401
1003.0000000000;0.0038187818
1003.5000000000;0.0032063543
1004.0000000000;0.0026080541
1004.5000000000;0.0027404330
1005.0000000000;0.0037465058
1005.5000000000;0.0039450997
1006.0000000000;0.0034777701
1006.5000000000;0.0037865893
1007.0000000000;0.0037552298
1007.5000000000;0.0031260608
1008.0000000000;0.0030373358
1008.5000000000;0.0031409876
1009.0000000000;0.0031868787
1009.5000000000;0.0035774359
1010.0000000000;0.0035688733
1010.5000000000;0.0029012489
1011.0000000000;0.0028361541
1011.5000000000;0.0033139007
1012.0000000000;0.0035109955
1012.5000000000;0.0027557656
1013.0000000000;0.0020215306
1013.5000000000;0.0025635485
1014.0000000000;0.0035529668
1014.5000000000;0.0039482443
1015.0000000000;0.0032586658
1015.5000000000;0.0024510776
1016.0000000000;0.0019452502
1016.5000000000;0.0015132814
1017.0000000000;0.0017383173
1017.5000000000;0.0026418976
1018.0000000000;0.0034272668
1018.5000000000;0.0039309105
1019.0000000000;0.0040954011
1019.5000000000;0.0037432725
