182.5000000000;1.0636533499
183.0000000000;1.0573102236
183.5000000000;1.0842080116
184.0000000000;1.1240532398
184.5000000000;1.1169614792
185.0000000000;1.1600724459
185.5000000000;1.3258000612
186.0000000000;1.4462586641
186.5000000000;1.5555118322
187.0000000000;1.8284888268
187.5000000000;2.0562632084
188.0000000000;2.1698391438
188.5000000000;2.2993228436
189.0000000000;2.4524321556
189.5000000000;2.5665903091
190.0000000000;2.6463665962
190.5000000000;2.6758639812
191.0000000000;2.7038643360
191.5000000000;2.7700631618
192.0000000000;2.8094708920
192.5000000000;2.8111612797
193.0000000000;2.8439962864
193.5000000000;2.8971865177
194.0000000000;2.9224255085
194.5000000000;2.9374983311
195.0000000000;2.9647848606
195.5000000000;3.0000832081
196.0000000000;3.0229747295
196.5000000000;3.0164251328
197.0000000000;3.0254325867
197.5000000000;3.0853013992
198.0000000000;3.1249549389
198.5000000000;3.1144864559
199.0000000000;3.1204173565
199.5000000000;3.1499736309
200.0000000000;3.1816461086
200.5000000000;3.2210977077
201.0000000000;3.2696838379
201.5000000000;3.3034489155
202.0000000000;3.3227839470
202.5000000000;3.3490731716
203.0000000000;3.3675951958
203.5000000000;3.3630261421
204.0000000000;3.3598310947
204.5000000000;3.3700628281
205.0000000000;3.3836355209
205.5000000000;3.3764381409
206.0000000000;3.3341472149
206.5000000000;3.3040926456
207.0000000000;3.3048419952
207.5000000000;3.2954263687
208.0000000000;3.2776350975
208.5000000000;3.2826659679
209.0000000000;3.2810201645
209.5000000000;3.2510643005
210.0000000000;3.2446329594
210.5000000000;3.2607989311
211.0000000000;3.2405240536
211.5000000000;3.2155420780
212.0000000000;3.2341725826
212.5000000000;3.2660899162
213.0000000000;3.2801973820
213.5000000000;3.2760207653
214.0000000000;3.2613062859
214.5000000000;3.2478721142
215.0000000000;3.2548065186
215.5000000000;3.2915019989
216.0000000000;3.3438265324
216.5000000000;3.3871250153
217.0000000000;3.3917713165
217.5000000000;3.3644087315
218.0000000000;3.3421070576
218.5000000000;3.3939142227
219.0000000000;3.5150995255
219.5000000000;3.5433144569
220.0000000000;3.4978594780
220.5000000000;3.4987063408
221.0000000000;3.5030164719
221.5000000000;3.4770658016
222.0000000000;3.4569985867
222.5000000000;3.4529163837
223.0000000000;3.4546480179
223.5000000000;3.4569714069
224.0000000000;3.4527559280
224.5000000000;3.4276940823
225.0000000000;3.4020023346
225.5000000000;3.4210362434
226.0000000000;3.4379732609
226.5000000000;3.3889615536
227.0000000000;3.3588221073
227.5000000000;3.3783874512
228.0000000000;3.3755922318
228.5000000000;3.3561840057
229.0000000000;3.3700478077
229.5000000000;3.3658950329
230.0000000000;3.3204939365
230.5000000000;3.3231146336
231.0000000000;3.3667366505
231.5000000000;3.3542211056
232.0000000000;3.3186495304
232.5000000000;3.3110468388
233.0000000000;3.2882499695
233.5000000000;3.2571008205
234.0000000000;3.2818944454
234.5000000000;3.3423218727
235.0000000000;3.3692741394
235.5000000000;3.3537058830
236.0000000000;3.3294935226
236.5000000000;3.3479492664
237.0000000000;3.3797380924
237.5000000000;3.3538498878
238.0000000000;3.3466002941
238.5000000000;3.4133055210
239.0000000000;3.4680919647
239.5000000000;3.4549143314
240.0000000000;3.4119579792
240.5000000000;3.3826320171
241.0000000000;3.3861155510
241.5000000000;3.3971378803
242.0000000000;3.3973824978
242.5000000000;3.3895478249
243.0000000000;3.3916304111
243.5000000000;3.4230823517
244.0000000000;3.4720194340
244.5000000000;3.5093364716
245.0000000000;3.4957580566
245.5000000000;3.4533131123
246.0000000000;3.4370939732
246.5000000000;3.4469316006
247.0000000000;3.4628305435
247.5000000000;3.4536390305
248.0000000000;3.4315557480
248.5000000000;3.4500052929
249.0000000000;3.4784708023
249.5000000000;3.4508547783
250.0000000000;3.3900036812
250.5000000000;3.3371665478
251.0000000000;3.3209095001
251.5000000000;3.3232276440
252.0000000000;3.3038909435
252.5000000000;3.2706120014
253.0000000000;3.2464630604
253.5000000000;3.2538228035
254.0000000000;3.2737212181
254.5000000000;3.2526752949
255.0000000000;3.2224566936
255.5000000000;3.2221298218
256.0000000000;3.2236073017
256.5000000000;3.1971669197
257.0000000000;3.1390814781
257.5000000000;3.1166300774
258.0000000000;3.1835596561
258.5000000000;3.2244932652
259.0000000000;3.1611988544
259.5000000000;3.1118061543
260.0000000000;3.1195929050
260.5000000000;3.1818420887
261.0000000000;3.2352740765
261.5000000000;3.2194609642
262.0000000000;3.1885373592
262.5000000000;3.1593084335
263.0000000000;3.1158351898
263.5000000000;3.1058254242
264.0000000000;3.1544451714
264.5000000000;3.1613185406
265.0000000000;3.1090049744
265.5000000000;3.0987732410
266.0000000000;3.1253654957
266.5000000000;3.1405985355
267.0000000000;3.1246240139
267.5000000000;3.0940299034
268.0000000000;3.0941319466
268.5000000000;3.1051392555
269.0000000000;3.0831890106
269.5000000000;3.0860130787
270.0000000000;3.1339735985
270.5000000000;3.1088993549
271.0000000000;3.0481050014
271.5000000000;3.0841264725
272.0000000000;3.1487786770
272.5000000000;3.1224880219
273.0000000000;3.0692019463
273.5000000000;3.0309305191
274.0000000000;2.9966683388
274.5000000000;2.9768974781
275.0000000000;2.9828381538
275.5000000000;2.9896764755
276.0000000000;2.9823210239
276.5000000000;2.9757814407
277.0000000000;2.9699378014
277.5000000000;2.9530036449
278.0000000000;2.9196834564
278.5000000000;2.8798816204
279.0000000000;2.8625972271
279.5000000000;2.8608858585
280.0000000000;2.8413331509
280.5000000000;2.8163268566
281.0000000000;2.8027002811
281.5000000000;2.7825791836
282.0000000000;2.7524206638
282.5000000000;2.7287261486
283.0000000000;2.7131361961
283.5000000000;2.6982729435
284.0000000000;2.6720995903
284.5000000000;2.6401712894
285.0000000000;2.6289238930
285.5000000000;2.6271114349
286.0000000000;2.6053104401
286.5000000000;2.5733356476
287.0000000000;2.5480730534
287.5000000000;2.5379683971
288.0000000000;2.5338993073
288.5000000000;2.5162186623
289.0000000000;2.4897592068
289.5000000000;2.4662501812
290.0000000000;2.4520959854
290.5000000000;2.4465193748
291.0000000000;2.4422101974
291.5000000000;2.4310798645
292.0000000000;2.4113800526
292.5000000000;2.3999989033
293.0000000000;2.3995099068
293.5000000000;2.3907206059
294.0000000000;2.3693039417
294.5000000000;2.3431913853
295.0000000000;2.3256928921
295.5000000000;2.3179075718
296.0000000000;2.3019821644
296.5000000000;2.2793672085
297.0000000000;2.2633755207
297.5000000000;2.2528953552
298.0000000000;2.2420136929
298.5000000000;2.2243523598
299.0000000000;2.2043097019
299.5000000000;2.1928946972
300.0000000000;2.1835222244
300.5000000000;2.1685585976
301.0000000000;2.1565020084
301.5000000000;2.1488914490
302.0000000000;2.1375765800
302.5000000000;2.1273005009
303.0000000000;2.1243736744
303.5000000000;2.1160244942
304.0000000000;2.0981945992
304.5000000000;2.0849308968
305.0000000000;2.0784132481
305.5000000000;2.0730955601
306.0000000000;2.0669257641
306.5000000000;2.0595326424
307.0000000000;2.0515689850
307.5000000000;2.0434463024
308.0000000000;2.0353193283
308.5000000000;2.0273883343
309.0000000000;2.0204257965
309.5000000000;2.0165553093
310.0000000000;2.0129306316
310.5000000000;2.0025289059
311.0000000000;1.9920014143
311.5000000000;1.9899088144
312.0000000000;1.9894810915
312.5000000000;1.9845767021
313.0000000000;1.9749577045
313.5000000000;1.9646812677
314.0000000000;1.9585604668
314.5000000000;1.9552131891
315.0000000000;1.9519045353
315.5000000000;1.9465039968
316.0000000000;1.9401289225
316.5000000000;1.9356245995
317.0000000000;1.9311469793
317.5000000000;1.9248710871
318.0000000000;1.9187818766
318.5000000000;1.9137800932
319.0000000000;1.9091815948
319.5000000000;1.9045245647
320.0000000000;1.8993525505
320.5000000000;1.8929383755
321.0000000000;1.8866174221
321.5000000000;1.8836863041
322.0000000000;1.8811448812
322.5000000000;1.8744962215
323.0000000000;1.8674334288
323.5000000000;1.8625346422
324.0000000000;1.8577989340
324.5000000000;1.8526459932
325.0000000000;1.8476550579
325.5000000000;1.8428102732
326.0000000000;1.8375986814
326.5000000000;1.8310388327
327.0000000000;1.8239849806
327.5000000000;1.8185781240
328.0000000000;1.8152326345
328.5000000000;1.8125892878
329.0000000000;1.8067201376
329.5000000000;1.7982788086
330.0000000000;1.7924654484
330.5000000000;1.7899831533
331.0000000000;1.7887476683
331.5000000000;1.7848227024
332.0000000000;1.7776522636
332.5000000000;1.7711876631
333.0000000000;1.7674968243
333.5000000000;1.7664016485
334.0000000000;1.7638136148
334.5000000000;1.7584571838
335.0000000000;1.7544066906
335.5000000000;1.7513650656
336.0000000000;1.7463711500
336.5000000000;1.7392092943
337.0000000000;1.7322570086
337.5000000000;1.7305877209
338.0000000000;1.7317725420
338.5000000000;1.7286781073
339.0000000000;1.7241219282
339.5000000000;1.7212115526
340.0000000000;1.7159506083
340.5000000000;1.7106267214
341.0000000000;1.7125891447
341.5000000000;1.7153860331
342.0000000000;1.7107607126
342.5000000000;1.7030080557
343.0000000000;1.6973478794
343.5000000000;1.6967141628
344.0000000000;1.6981375217
344.5000000000;1.6976610422
345.0000000000;1.6984237432
345.5000000000;1.7003247738
346.0000000000;1.6971521378
346.5000000000;1.6918333769
347.0000000000;1.6907972097
347.5000000000;1.6903840303
348.0000000000;1.6884459257
348.5000000000;1.6894843578
349.0000000000;1.6917226315
349.5000000000;1.6897211075
350.0000000000;1.6867486238
350.5000000000;1.6868857145
351.0000000000;1.6899567842
351.5000000000;1.6921755075
352.0000000000;1.6886705160
352.5000000000;1.6857582331
353.0000000000;1.6883865595
353.5000000000;1.6878515482
354.0000000000;1.6840611696
354.5000000000;1.6865590811
355.0000000000;1.6901179552
355.5000000000;1.6872031689
356.0000000000;1.6854529381
356.5000000000;1.6878589392
357.0000000000;1.6884949207
357.5000000000;1.6876145601
358.0000000000;1.6880197525
358.5000000000;1.6874439716
359.0000000000;1.6848223209
359.5000000000;1.6833398342
360.0000000000;1.6847685575
360.5000000000;1.6876964569
361.0000000000;1.6879236698
361.5000000000;1.6849954128
362.0000000000;1.6827633381
362.5000000000;1.6822507381
363.0000000000;1.6819915771
363.5000000000;1.6809594631
364.0000000000;1.6786508560
364.5000000000;1.6754034758
365.0000000000;1.6733022928
365.5000000000;1.6746547222
366.0000000000;1.6735479832
366.5000000000;1.6662337780
367.0000000000;1.6628205776
367.5000000000;1.6643793583
368.0000000000;1.6615459919
368.5000000000;1.6562608480
369.0000000000;1.6535559893
369.5000000000;1.6504211426
370.0000000000;1.6453963518
370.5000000000;1.6409248114
371.0000000000;1.6368515491
371.5000000000;1.6318690777
372.0000000000;1.6265994310
372.5000000000;1.6217988729
373.0000000000;1.6176989079
373.5000000000;1.6129299402
374.0000000000;1.6058484316
374.5000000000;1.5981723070
375.0000000000;1.5915211439
375.5000000000;1.5857324600
376.0000000000;1.5798968077
376.5000000000;1.5731196404
377.0000000000;1.5669562817
377.5000000000;1.5618385077
378.0000000000;1.5541378260
378.5000000000;1.5443080664
379.0000000000;1.5364704132
379.5000000000;1.5302935839
380.0000000000;1.5236828327
380.5000000000;1.5153344870
381.0000000000;1.5056848526
381.5000000000;1.4961953163
382.0000000000;1.4866423607
382.5000000000;1.4767346382
383.0000000000;1.4664697647
383.5000000000;1.4563797712
384.0000000000;1.4485024214
384.5000000000;1.4402930737
385.0000000000;1.4286845922
385.5000000000;1.4180182219
386.0000000000;1.4099037647
386.5000000000;1.4008547068
387.0000000000;1.3907064199
387.5000000000;1.3808333874
388.0000000000;1.3705360889
388.5000000000;1.3597065210
389.0000000000;1.3497161865
389.5000000000;1.3394747972
390.0000000000;1.3273780346
390.5000000000;1.3154498339
391.0000000000;1.3050366640
391.5000000000;1.2949260473
392.0000000000;1.2850081921
392.5000000000;1.2759423256
393.0000000000;1.2657097578
393.5000000000;1.2531436682
394.0000000000;1.2416144609
394.5000000000;1.2318801880
395.0000000000;1.2214292288
395.5000000000;1.2103366852
396.0000000000;1.1995079517
396.5000000000;1.1884169579
397.0000000000;1.1776298285
397.5000000000;1.1683413982
398.0000000000;1.1581728458
398.5000000000;1.1456857920
399.0000000000;1.1349303722
399.5000000000;1.1266684532
400.0000000000;1.1178725958
400.5000000000;1.1072301865
401.0000000000;1.0953427553
401.5000000000;1.0850520134
402.0000000000;1.0766391754
402.5000000000;1.0673973560
403.0000000000;1.0570287704
403.5000000000;1.0464917421
404.0000000000;1.0368560553
404.5000000000;1.0283566713
405.0000000000;1.0198727846
405.5000000000;1.0106812716
406.0000000000;1.0007011890
406.5000000000;0.9910030961
407.0000000000;0.9819474220
407.5000000000;0.9729567766
408.0000000000;0.9638545513
408.5000000000;0.9548008442
409.0000000000;0.9460511208
409.5000000000;0.9374309182
410.0000000000;0.9286504984
410.5000000000;0.9199229479
411.0000000000;0.9115455747
411.5000000000;0.9037219882
412.0000000000;0.8964568973
412.5000000000;0.8890840411
413.0000000000;0.8814768791
413.5000000000;0.8735482097
414.0000000000;0.8652891517
414.5000000000;0.8571352363
415.0000000000;0.8495749235
415.5000000000;0.8425985575
416.0000000000;0.8353819847
416.5000000000;0.8279279470
417.0000000000;0.8207681179
417.5000000000;0.8138828874
418.0000000000;0.8071305752
418.5000000000;0.8003674746
419.0000000000;0.7936149836
419.5000000000;0.7871012092
420.0000000000;0.7803649306
420.5000000000;0.7734714746
421.0000000000;0.7673332095
421.5000000000;0.7616952658
422.0000000000;0.7557124496
422.5000000000;0.7492303848
423.0000000000;0.7428938746
423.5000000000;0.7375893593
424.0000000000;0.7324346304
424.5000000000;0.7260524631
425.0000000000;0.7194579244
425.5000000000;0.7138046622
426.0000000000;0.7083347440
426.5000000000;0.7026571631
427.0000000000;0.6973931193
427.5000000000;0.6923774481
428.0000000000;0.6870273948
428.5000000000;0.6816090941
429.0000000000;0.6762768626
429.5000000000;0.6712333560
430.0000000000;0.6663479209
430.5000000000;0.6613203287
431.0000000000;0.6564143896
431.5000000000;0.6516709328
432.0000000000;0.6469488740
432.5000000000;0.6420694590
433.0000000000;0.6370670199
433.5000000000;0.6325515509
434.0000000000;0.6286142468
434.5000000000;0.6243042946
435.0000000000;0.6195202470
435.5000000000;0.6150600314
436.0000000000;0.6109145284
436.5000000000;0.6068464518
437.0000000000;0.6028221250
437.5000000000;0.5987569690
438.0000000000;0.5947050452
438.5000000000;0.5909421444
439.0000000000;0.5872873664
439.5000000000;0.5832587481
440.0000000000;0.5790525675
440.5000000000;0.5750551820
441.0000000000;0.5715863705
441.5000000000;0.5685415864
442.0000000000;0.5649660230
442.5000000000;0.5610291958
443.0000000000;0.5575742126
443.5000000000;0.5543375015
444.0000000000;0.5510777831
444.5000000000;0.5478327870
445.0000000000;0.5446279645
445.5000000000;0.5414752364
446.0000000000;0.5383908153
446.5000000000;0.5353341103
447.0000000000;0.5321395993
447.5000000000;0.5289506912
448.0000000000;0.5260575414
448.5000000000;0.5233613253
449.0000000000;0.5206556916
449.5000000000;0.5177595019
450.0000000000;0.5148464441
450.5000000000;0.5121145248
451.0000000000;0.5092684031
451.5000000000;0.5063596368
452.0000000000;0.5039006472
452.5000000000;0.5016335845
453.0000000000;0.4990919232
453.5000000000;0.4966209233
454.0000000000;0.4942758679
454.5000000000;0.4915592074
455.0000000000;0.4888481200
455.5000000000;0.4867327511
456.0000000000;0.4847776890
456.5000000000;0.4826142788
457.0000000000;0.4803305566
457.5000000000;0.4781918824
458.0000000000;0.4763658941
458.5000000000;0.4744566083
459.0000000000;0.4722508788
459.5000000000;0.4701365530
460.0000000000;0.4681924880
460.5000000000;0.4662311375
461.0000000000;0.4643410742
461.5000000000;0.4626022577
462.0000000000;0.4608064294
462.5000000000;0.4589887559
463.0000000000;0.4574254751
463.5000000000;0.4559424222
464.0000000000;0.4542779028
464.5000000000;0.4525163770
465.0000000000;0.4507869780
465.5000000000;0.4491107762
466.0000000000;0.4475284815
466.5000000000;0.4460401535
467.0000000000;0.4444954693
467.5000000000;0.4429911375
468.0000000000;0.4417208135
468.5000000000;0.4403994381
469.0000000000;0.4387649000
469.5000000000;0.4369898438
470.0000000000;0.4354117215
470.5000000000;0.4342697561
471.0000000000;0.4331577122
471.5000000000;0.4318023920
472.0000000000;0.4305288196
472.5000000000;0.4294466674
473.0000000000;0.4284555018
473.5000000000;0.4274227321
474.0000000000;0.4262098968
474.5000000000;0.4248347282
475.0000000000;0.4235348403
475.5000000000;0.4225305617
476.0000000000;0.4216409028
476.5000000000;0.4206628501
477.0000000000;0.4195786715
477.5000000000;0.4184286296
478.0000000000;0.4173226357
478.5000000000;0.4164407551
479.0000000000;0.4157337844
479.5000000000;0.4148096144
480.0000000000;0.4137848616
480.5000000000;0.4130344689
481.0000000000;0.4122707248
481.5000000000;0.4112877846
482.0000000000;0.4104387462
482.5000000000;0.4097902179
483.0000000000;0.4091278017
483.5000000000;0.4083363712
484.0000000000;0.4074651897
484.5000000000;0.4067381024
485.0000000000;0.4060307145
485.5000000000;0.4052881896
486.0000000000;0.4048801363
486.5000000000;0.4046747088
487.0000000000;0.4040685594
487.5000000000;0.4030742347
488.0000000000;0.4023699462
488.5000000000;0.4017969966
489.0000000000;0.4010759592
489.5000000000;0.4005378187
490.0000000000;0.4001649320
490.5000000000;0.3996206820
491.0000000000;0.3989861608
491.5000000000;0.3984288275
492.0000000000;0.3979614675
492.5000000000;0.3975956738
493.0000000000;0.3973263502
493.5000000000;0.3970249295
494.0000000000;0.3965524137
494.5000000000;0.3958753049
495.0000000000;0.3952343166
495.5000000000;0.3949740529
496.0000000000;0.3948289454
496.5000000000;0.3945181370
497.0000000000;0.3941630125
497.5000000000;0.3938455880
498.0000000000;0.3936004341
498.5000000000;0.3934605122
499.0000000000;0.3933673799
499.5000000000;0.3931146562
500.0000000000;0.3927825689
500.5000000000;0.3926578760
501.0000000000;0.3926259577
501.5000000000;0.3924977481
502.0000000000;0.3922411799
502.5000000000;0.3919815421
503.0000000000;0.3919101655
503.5000000000;0.3918276131
504.0000000000;0.3916173875
504.5000000000;0.3915995061
505.0000000000;0.3917562068
505.5000000000;0.3917838335
506.0000000000;0.3916391730
506.5000000000;0.3914544582
507.0000000000;0.3915117383
507.5000000000;0.3916935623
508.0000000000;0.3916498423
508.5000000000;0.3916753829
509.0000000000;0.3919417262
509.5000000000;0.3919934630
510.0000000000;0.3919304609
510.5000000000;0.3922208250
511.0000000000;0.3925787807
511.5000000000;0.3927231133
512.0000000000;0.3928385377
512.5000000000;0.3930138350
513.0000000000;0.3932149410
513.5000000000;0.3933907151
514.0000000000;0.3935635686
514.5000000000;0.3938821554
515.0000000000;0.3942665756
515.5000000000;0.3944997787
516.0000000000;0.3946180344
516.5000000000;0.3947423398
517.0000000000;0.3949945271
517.5000000000;0.3953704834
518.0000000000;0.3957879543
518.5000000000;0.3962281048
519.0000000000;0.3966473341
519.5000000000;0.3969434500
520.0000000000;0.3971929252
520.5000000000;0.3975522816
521.0000000000;0.3979441822
521.5000000000;0.3983020186
522.0000000000;0.3986977041
522.5000000000;0.3991209567
523.0000000000;0.3995074332
523.5000000000;0.3998844624
524.0000000000;0.4003043175
524.5000000000;0.4008002281
525.0000000000;0.4012787640
525.5000000000;0.4016293883
526.0000000000;0.4019940197
526.5000000000;0.4024248719
527.0000000000;0.4027625620
527.5000000000;0.4030843079
528.0000000000;0.4035471082
528.5000000000;0.4040013850
529.0000000000;0.4043667912
529.5000000000;0.4047717154
530.0000000000;0.4052475393
530.5000000000;0.4057368040
531.0000000000;0.4061173499
531.5000000000;0.4063929915
532.0000000000;0.4067417681
532.5000000000;0.4071057141
533.0000000000;0.4073742330
533.5000000000;0.4077420533
534.0000000000;0.4082118571
534.5000000000;0.4084945619
535.0000000000;0.4087342620
535.5000000000;0.4091549516
536.0000000000;0.4094686508
536.5000000000;0.4095936120
537.0000000000;0.4097944200
537.5000000000;0.4100601971
538.0000000000;0.4102967680
538.5000000000;0.4106057882
539.0000000000;0.4109362066
539.5000000000;0.4110618234
540.0000000000;0.4111105204
540.5000000000;0.4112766981
541.0000000000;0.4114664793
541.5000000000;0.4116172194
542.0000000000;0.4117473662
542.5000000000;0.4118295908
543.0000000000;0.4118242264
543.5000000000;0.4117122293
544.0000000000;0.4116044343
544.5000000000;0.4116869867
545.0000000000;0.4118080735
545.5000000000;0.4117820263
546.0000000000;0.4116682112
546.5000000000;0.4115193784
547.0000000000;0.4113529921
547.5000000000;0.4112203717
548.0000000000;0.4111364484
548.5000000000;0.4110135138
549.0000000000;0.4108012021
549.5000000000;0.4105033576
550.0000000000;0.4101618230
550.5000000000;0.4098133743
551.0000000000;0.4094676971
551.5000000000;0.4090937376
552.0000000000;0.4086583555
552.5000000000;0.4082511365
553.0000000000;0.4079056680
553.5000000000;0.4075106680
554.0000000000;0.4070165753
554.5000000000;0.4064356089
555.0000000000;0.4058689475
555.5000000000;0.4053528309
556.0000000000;0.4047552943
556.5000000000;0.4041137993
557.0000000000;0.4035422802
557.5000000000;0.4029237628
558.0000000000;0.4021937549
558.5000000000;0.4014431834
559.0000000000;0.4006735682
559.5000000000;0.3998546600
560.0000000000;0.3990107775
560.5000000000;0.3981637061
561.0000000000;0.3973236084
561.5000000000;0.3964577317
562.0000000000;0.3955365121
562.5000000000;0.3946024776
563.0000000000;0.3936609924
563.5000000000;0.3926612735
564.0000000000;0.3916393816
564.5000000000;0.3906470537
565.0000000000;0.3896313906
565.5000000000;0.3885513246
566.0000000000;0.3874130845
566.5000000000;0.3862263262
567.0000000000;0.3850282133
567.5000000000;0.3838646412
568.0000000000;0.3827483058
568.5000000000;0.3817064464
569.0000000000;0.3806441128
569.5000000000;0.3795347512
570.0000000000;0.3784146607
570.5000000000;0.3772706687
571.0000000000;0.3761757016
571.5000000000;0.3749895692
572.0000000000;0.3737334013
572.5000000000;0.3722609878
573.0000000000;0.3705862761
573.5000000000;0.3690586388
574.0000000000;0.3675946891
574.5000000000;0.3660593033
575.0000000000;0.3645534813
575.5000000000;0.3631343842
576.0000000000;0.3616667688
576.5000000000;0.3599643111
577.0000000000;0.3581241965
577.5000000000;0.3567416966
578.0000000000;0.3555913270
578.5000000000;0.3539850712
579.0000000000;0.3521139920
579.5000000000;0.3504267037
580.0000000000;0.3490052521
580.5000000000;0.3475266695
581.0000000000;0.3457922041
581.5000000000;0.3441443145
582.0000000000;0.3426521420
582.5000000000;0.3408633173
583.0000000000;0.3387741148
583.5000000000;0.3370224833
584.0000000000;0.3356485367
584.5000000000;0.3342905939
585.0000000000;0.3325378001
585.5000000000;0.3305901885
586.0000000000;0.3288163543
586.5000000000;0.3270844221
587.0000000000;0.3253086209
587.5000000000;0.3235726058
588.0000000000;0.3219178617
588.5000000000;0.3202444911
589.0000000000;0.3184538186
589.5000000000;0.3165496588
590.0000000000;0.3147205412
590.5000000000;0.3129793108
591.0000000000;0.3112507761
591.5000000000;0.3095871806
592.0000000000;0.3078995347
592.5000000000;0.3061374128
593.0000000000;0.3044815063
593.5000000000;0.3028447926
594.0000000000;0.3009486198
594.5000000000;0.2989988029
595.0000000000;0.2973439693
595.5000000000;0.2957327962
596.0000000000;0.2939033806
596.5000000000;0.2920423448
597.0000000000;0.2903338671
597.5000000000;0.2887475491
598.0000000000;0.2870126069
598.5000000000;0.2850907743
599.0000000000;0.2833220065
599.5000000000;0.2816779912
600.0000000000;0.2799704075
600.5000000000;0.2782773376
601.0000000000;0.2766751945
601.5000000000;0.2750657201
602.0000000000;0.2732997835
602.5000000000;0.2713908851
603.0000000000;0.2695932984
603.5000000000;0.2679648697
604.0000000000;0.2662949562
604.5000000000;0.2645120025
605.0000000000;0.2628024817
605.5000000000;0.2612212002
606.0000000000;0.2596342564
606.5000000000;0.2579888701
607.0000000000;0.2563835680
607.5000000000;0.2548100054
608.0000000000;0.2532036304
608.5000000000;0.2515687644
609.0000000000;0.2499204725
609.5000000000;0.2483648956
610.0000000000;0.2468887568
610.5000000000;0.2452647686
611.0000000000;0.2435793430
611.5000000000;0.2420318723
612.0000000000;0.2404918671
612.5000000000;0.2389002591
613.0000000000;0.2373877317
613.5000000000;0.2358709127
614.0000000000;0.2342564464
614.5000000000;0.2327376157
615.0000000000;0.2312768847
615.5000000000;0.2297125757
616.0000000000;0.2281923592
616.5000000000;0.2267210484
617.0000000000;0.2251112908
617.5000000000;0.2235298455
618.0000000000;0.2221651971
618.5000000000;0.2207941860
619.0000000000;0.2193135023
619.5000000000;0.2178719044
620.0000000000;0.2164864242
620.5000000000;0.2150380611
621.0000000000;0.2135300785
621.5000000000;0.2120688707
622.0000000000;0.2107186466
622.5000000000;0.2094040215
623.0000000000;0.2080076784
623.5000000000;0.2065495700
624.0000000000;0.2050972134
624.5000000000;0.2037194520
625.0000000000;0.2023488283
625.5000000000;0.2009306699
626.0000000000;0.1995555907
626.5000000000;0.1982700825
627.0000000000;0.1970526576
627.5000000000;0.1957876831
628.0000000000;0.1944168657
628.5000000000;0.1930813193
629.0000000000;0.1918079853
629.5000000000;0.1905206889
630.0000000000;0.1892603189
630.5000000000;0.1880101115
631.0000000000;0.1866509467
631.5000000000;0.1852895319
632.0000000000;0.1840830445
632.5000000000;0.1829402596
633.0000000000;0.1817651391
633.5000000000;0.1805308312
634.0000000000;0.1792769432
634.5000000000;0.1780566275
635.0000000000;0.1768657714
635.5000000000;0.1757151932
636.0000000000;0.1746149212
636.5000000000;0.1734788865
637.0000000000;0.1722670048
637.5000000000;0.1711263955
638.0000000000;0.1700374782
638.5000000000;0.1688499153
639.0000000000;0.1676762849
639.5000000000;0.1666136533
640.0000000000;0.1655799299
640.5000000000;0.1644877940
641.0000000000;0.1632997543
641.5000000000;0.1621702760
642.0000000000;0.1611604244
642.5000000000;0.1601381749
643.0000000000;0.1590709537
643.5000000000;0.1579963267
644.0000000000;0.1569785476
644.5000000000;0.1559934765
645.0000000000;0.1549559385
645.5000000000;0.1538984179
646.0000000000;0.1528746486
646.5000000000;0.1518994421
647.0000000000;0.1509258151
647.5000000000;0.1498871595
648.0000000000;0.1488621682
648.5000000000;0.1479100287
649.0000000000;0.1469727159
649.5000000000;0.1460352093
650.0000000000;0.1451125443
650.5000000000;0.1441872418
651.0000000000;0.1432517916
651.5000000000;0.1423175782
652.0000000000;0.1414073855
652.5000000000;0.1405236721
653.0000000000;0.1396029294
653.5000000000;0.1386360824
654.0000000000;0.1377196014
654.5000000000;0.1366848946
655.0000000000;0.1352725476
655.5000000000;0.1347645968
656.0000000000;0.1349356323
656.5000000000;0.1351912767
657.0000000000;0.1347374916
657.5000000000;0.1324875504
658.0000000000;0.1308169216
658.5000000000;0.1301273406
659.0000000000;0.1292621791
659.5000000000;0.1282750070
660.0000000000;0.1273881644
660.5000000000;0.1266185343
661.0000000000;0.1258774698
661.5000000000;0.1250695288
662.0000000000;0.1242052093
662.5000000000;0.1233580038
663.0000000000;0.1226207018
663.5000000000;0.1219318882
664.0000000000;0.1211963370
664.5000000000;0.1203833222
665.0000000000;0.1195738763
665.5000000000;0.1188741177
666.0000000000;0.1181756929
666.5000000000;0.1174038351
667.0000000000;0.1166274548
667.5000000000;0.1158571839
668.0000000000;0.1150775403
668.5000000000;0.1143549532
669.0000000000;0.1136845648
669.5000000000;0.1129688770
670.0000000000;0.1122450158
670.5000000000;0.1115675047
671.0000000000;0.1108921692
671.5000000000;0.1102062836
672.0000000000;0.1095288843
672.5000000000;0.1088598594
673.0000000000;0.1082001403
673.5000000000;0.1075604409
674.0000000000;0.1069004983
674.5000000000;0.1061816514
675.0000000000;0.1055098698
675.5000000000;0.1049206853
676.0000000000;0.1043162793
676.5000000000;0.1036877409
677.0000000000;0.1030535102
677.5000000000;0.1023730114
678.0000000000;0.1016903818
678.5000000000;0.1011071131
679.0000000000;0.1005503386
679.5000000000;0.0999521092
680.0000000000;0.0993610173
680.5000000000;0.0988037735
681.0000000000;0.0982711986
681.5000000000;0.0976707116
682.0000000000;0.0970073044
682.5000000000;0.0964417905
683.0000000000;0.0958984569
683.5000000000;0.0952737555
684.0000000000;0.0947812721
684.5000000000;0.0944039449
685.0000000000;0.0938696489
685.5000000000;0.0932691693
686.0000000000;0.0927363709
686.5000000000;0.0921976641
687.0000000000;0.0916357860
687.5000000000;0.0910855830
688.0000000000;0.0905462280
688.5000000000;0.0900264159
689.0000000000;0.0895607173
689.5000000000;0.0890814587
690.0000000000;0.0885181949
690.5000000000;0.0880013332
691.0000000000;0.0875721127
691.5000000000;0.0871283412
692.0000000000;0.0866323337
692.5000000000;0.0861066431
693.0000000000;0.0856357291
693.5000000000;0.0851911902
694.0000000000;0.0846720487
694.5000000000;0.0841771215
695.0000000000;0.0837610960
695.5000000000;0.0832937732
696.0000000000;0.0828129947
696.5000000000;0.0824263915
697.0000000000;0.0820480585
697.5000000000;0.0816064328
698.0000000000;0.0811071768
698.5000000000;0.0806085914
699.0000000000;0.0801702663
699.5000000000;0.0797757059
700.0000000000;0.0793774277
700.5000000000;0.0789317340
701.0000000000;0.0784715563
701.5000000000;0.0780351460
702.0000000000;0.0776318163
702.5000000000;0.0772491693
703.0000000000;0.0768598914
703.5000000000;0.0764546990
704.0000000000;0.0760406479
704.5000000000;0.0756292418
705.0000000000;0.0752096102
705.5000000000;0.0748019665
706.0000000000;0.0745174140
706.5000000000;0.0742853582
707.0000000000;0.0739190280
707.5000000000;0.0734987557
708.0000000000;0.0731117651
708.5000000000;0.0727280676
709.0000000000;0.0723408684
709.5000000000;0.0719610676
710.0000000000;0.0716096088
710.5000000000;0.0712589622
711.0000000000;0.0708370730
711.5000000000;0.0704408437
712.0000000000;0.0701593459
712.5000000000;0.0698887110
713.0000000000;0.0695838556
713.5000000000;0.0692658201
714.0000000000;0.0689323843
714.5000000000;0.0685866922
715.0000000000;0.0682543963
715.5000000000;0.0679313838
716.0000000000;0.0675936341
716.5000000000;0.0672381148
717.0000000000;0.0668909773
717.5000000000;0.0665880293
718.0000000000;0.0662925094
718.5000000000;0.0659784675
719.0000000000;0.0657001287
719.5000000000;0.0654132739
720.0000000000;0.0650359243
720.5000000000;0.0646909550
721.0000000000;0.0644375160
721.5000000000;0.0641689450
722.0000000000;0.0638655946
722.5000000000;0.0635618046
723.0000000000;0.0632972717
723.5000000000;0.0630612969
724.0000000000;0.0627968907
724.5000000000;0.0625108555
725.0000000000;0.0622347295
725.5000000000;0.0619892813
726.0000000000;0.0617433563
726.5000000000;0.0614530779
727.0000000000;0.0611647293
727.5000000000;0.0609005988
728.0000000000;0.0606243424
728.5000000000;0.0603581816
729.0000000000;0.0601270273
729.5000000000;0.0598913915
730.0000000000;0.0596475080
730.5000000000;0.0594252385
731.0000000000;0.0592048727
731.5000000000;0.0589536466
732.0000000000;0.0586554743
732.5000000000;0.0583716556
733.0000000000;0.0581649095
733.5000000000;0.0579497367
734.0000000000;0.0576900691
734.5000000000;0.0574352518
735.0000000000;0.0572398268
735.5000000000;0.0570843332
736.0000000000;0.0568098612
736.5000000000;0.0564725995
737.0000000000;0.0562459901
737.5000000000;0.0560480841
738.0000000000;0.0558056608
738.5000000000;0.0555608012
739.0000000000;0.0553569458
739.5000000000;0.0552042164
740.0000000000;0.0550521985
740.5000000000;0.0548448414
741.0000000000;0.0545537621
741.5000000000;0.0542794429
742.0000000000;0.0540933460
742.5000000000;0.0539306402
743.0000000000;0.0537209734
743.5000000000;0.0534508973
744.0000000000;0.0532598533
744.5000000000;0.0531464107
745.0000000000;0.0529468246
745.5000000000;0.0526953042
746.0000000000;0.0524846278
746.5000000000;0.0523417294
747.0000000000;0.0522074401
747.5000000000;0.0520071909
748.0000000000;0.0518309772
748.5000000000;0.0516853705
749.0000000000;0.0514391847
749.5000000000;0.0512082875
750.0000000000;0.0511123948
750.5000000000;0.0509727411
751.0000000000;0.0507492349
751.5000000000;0.0505431145
752.0000000000;0.0503274389
752.5000000000;0.0501293056
753.0000000000;0.0501034223
753.5000000000;0.0500880219
754.0000000000;0.0498632789
754.5000000000;0.0495970957
755.0000000000;0.0493759811
755.5000000000;0.0491462275
756.0000000000;0.0490050614
756.5000000000;0.0489885323
757.0000000000;0.0489179306
757.5000000000;0.0487376414
758.0000000000;0.0485096946
758.5000000000;0.0483537614
759.0000000000;0.0482574776
759.5000000000;0.0480648205
760.0000000000;0.0478383303
760.5000000000;0.0476694889
761.0000000000;0.0475021191
761.5000000000;0.0472891666
762.0000000000;0.0470299311
762.5000000000;0.0468472019
763.0000000000;0.0467781685
763.5000000000;0.0466884524
764.0000000000;0.0465292260
764.5000000000;0.0463325828
765.0000000000;0.0461887866
765.5000000000;0.0460461229
766.0000000000;0.0457758233
766.5000000000;0.0455202684
767.0000000000;0.0453916453
767.5000000000;0.0453191400
768.0000000000;0.0452800654
768.5000000000;0.0452548116
769.0000000000;0.0451355949
769.5000000000;0.0449077077
770.0000000000;0.0446564220
770.5000000000;0.0444280840
771.0000000000;0.0442449152
771.5000000000;0.0440932103
772.0000000000;0.0439118594
772.5000000000;0.0436721295
773.0000000000;0.0435131490
773.5000000000;0.0434548445
774.0000000000;0.0433693081
774.5000000000;0.0432460383
775.0000000000;0.0430891849
775.5000000000;0.0428469814
776.0000000000;0.0426405706
776.5000000000;0.0426180772
777.0000000000;0.0425695218
777.5000000000;0.0424058437
778.0000000000;0.0422730893
778.5000000000;0.0421908908
779.0000000000;0.0421308093
779.5000000000;0.0420891158
780.0000000000;0.0419928581
780.5000000000;0.0417783484
781.0000000000;0.0416514724
781.5000000000;0.0416410454
782.0000000000;0.0414832085
782.5000000000;0.0412740335
783.0000000000;0.0411719941
783.5000000000;0.0410587825
784.0000000000;0.0408946425
784.5000000000;0.0407262780
785.0000000000;0.0405553728
785.5000000000;0.0404104814
786.0000000000;0.0403522030
786.5000000000;0.0403174646
787.0000000000;0.0402202308
787.5000000000;0.0400769748
788.0000000000;0.0399527550
788.5000000000;0.0399099365
789.0000000000;0.0398593433
789.5000000000;0.0397387072
790.0000000000;0.0395934805
790.5000000000;0.0394709781
791.0000000000;0.0393829495
791.5000000000;0.0392616987
792.0000000000;0.0390880704
792.5000000000;0.0389048606
793.0000000000;0.0387698226
793.5000000000;0.0387182385
794.0000000000;0.0387342013
794.5000000000;0.0387065448
795.0000000000;0.0385415778
795.5000000000;0.0383291990
796.0000000000;0.0381593592
796.5000000000;0.0380732343
797.0000000000;0.0380073600
797.5000000000;0.0379109420
798.0000000000;0.0378073230
798.5000000000;0.0377145633
799.0000000000;0.0376427732
799.5000000000;0.0375900269
800.0000000000;0.0375331640
800.5000000000;0.0374387652
801.0000000000;0.0373092890
801.5000000000;0.0371874049
802.0000000000;0.0371428914
802.5000000000;0.0370609798
803.0000000000;0.0368341394
803.5000000000;0.0366765037
804.0000000000;0.0366444141
804.5000000000;0.0366043150
805.0000000000;0.0365058705
805.5000000000;0.0363931060
806.0000000000;0.0363887399
806.5000000000;0.0363668054
807.0000000000;0.0361855142
807.5000000000;0.0360639058
808.0000000000;0.0360243022
808.5000000000;0.0358898826
809.0000000000;0.0357741565
809.5000000000;0.0357539207
810.0000000000;0.0357067622
810.5000000000;0.0356173925
811.0000000000;0.0355213694
811.5000000000;0.0353967883
812.0000000000;0.0352223366
812.5000000000;0.0350153670
813.0000000000;0.0349222012
813.5000000000;0.0349737853
814.0000000000;0.0349760093
814.5000000000;0.0348944999
815.0000000000;0.0347840115
815.5000000000;0.0346785150
816.0000000000;0.0345816277
816.5000000000;0.0344817303
817.0000000000;0.0344193839
817.5000000000;0.0343868509
818.0000000000;0.0342965424
818.5000000000;0.0342263356
819.0000000000;0.0342294276
819.5000000000;0.0340813771
820.0000000000;0.0338784568
820.5000000000;0.0339153484
821.0000000000;0.0339521132
821.5000000000;0.0338278003
822.0000000000;0.0336928032
822.5000000000;0.0335766077
823.0000000000;0.0334653333
823.5000000000;0.0334118716
824.0000000000;0.0333988629
824.5000000000;0.0333571844
825.0000000000;0.0332716517
825.5000000000;0.0331684165
826.0000000000;0.0331048407
826.5000000000;0.0331065431
827.0000000000;0.0331287459
827.5000000000;0.0330184214
828.0000000000;0.0327940956
828.5000000000;0.0325982049
829.0000000000;0.0325106941
829.5000000000;0.0325106494
830.0000000000;0.0324815586
830.5000000000;0.0323863178
831.0000000000;0.0322715715
831.5000000000;0.0322633386
832.0000000000;0.0322865695
832.5000000000;0.0321921706
833.0000000000;0.0320766680
833.5000000000;0.0320070945
834.0000000000;0.0319656543
834.5000000000;0.0319684409
835.0000000000;0.0319671109
835.5000000000;0.0318008251
836.0000000000;0.0316467397
836.5000000000;0.0317262746
837.0000000000;0.0317239985
837.5000000000;0.0315538049
838.0000000000;0.0314221680
838.5000000000;0.0313166939
839.0000000000;0.0312112458
839.5000000000;0.0311709661
840.0000000000;0.0311615616
840.5000000000;0.0311123021
841.0000000000;0.0310163740
841.5000000000;0.0309174452
842.0000000000;0.0308720320
842.5000000000;0.0308398157
843.0000000000;0.0307808500
843.5000000000;0.0307034515
844.0000000000;0.0306767523
844.5000000000;0.0306946095
845.0000000000;0.0305418652
845.5000000000;0.0303579960
846.0000000000;0.0304249674
846.5000000000;0.0304362923
847.0000000000;0.0302863754
847.5000000000;0.0302408710
848.0000000000;0.0301860701
848.5000000000;0.0300274882
849.0000000000;0.0300085321
849.5000000000;0.0300664119
850.0000000000;0.0299972594
850.5000000000;0.0298854746
851.0000000000;0.0298092719
851.5000000000;0.0297726672
852.0000000000;0.0297484342
852.5000000000;0.0297257937
853.0000000000;0.0297290739
853.5000000000;0.0297214184
854.0000000000;0.0296660010
854.5000000000;0.0296188872
855.0000000000;0.0295317601
855.5000000000;0.0293289907
856.0000000000;0.0293107852
856.5000000000;0.0294832364
857.0000000000;0.0293667782
857.5000000000;0.0290873609
858.0000000000;0.0289417151
858.5000000000;0.0289315432
859.0000000000;0.0289966762
859.5000000000;0.0290511176
860.0000000000;0.0289761461
860.5000000000;0.0288083181
861.0000000000;0.0287316982
861.5000000000;0.0286761038
862.0000000000;0.0285978243
862.5000000000;0.0286557656
863.0000000000;0.0287430882
863.5000000000;0.0286770444
864.0000000000;0.0285510719
864.5000000000;0.0284455102
865.0000000000;0.0283760931
865.5000000000;0.0283148978
866.0000000000;0.0282479413
866.5000000000;0.0281979442
867.0000000000;0.0281671211
867.5000000000;0.0281374920
868.0000000000;0.0280763190
868.5000000000;0.0280111823
869.0000000000;0.0279853996
869.5000000000;0.0279300883
870.0000000000;0.0278246850
870.5000000000;0.0277375132
871.0000000000;0.0277565010
871.5000000000;0.0278216694
872.0000000000;0.0276496056
872.5000000000;0.0275222603
873.0000000000;0.0277451333
873.5000000000;0.0277420525
874.0000000000;0.0274700057
874.5000000000;0.0273907892
875.0000000000;0.0274187960
875.5000000000;0.0273909122
876.0000000000;0.0272883847
876.5000000000;0.0272594932
877.0000000000;0.0273365844
877.5000000000;0.0271831900
878.0000000000;0.0269746836
878.5000000000;0.0270710997
879.0000000000;0.0271243639
879.5000000000;0.0270144083
880.0000000000;0.0269801579
880.5000000000;0.0270174369
881.0000000000;0.0269794669
881.5000000000;0.0266932826
882.0000000000;0.0265376251
882.5000000000;0.0267989114
883.0000000000;0.0267940182
883.5000000000;0.0265186001
884.0000000000;0.0264837295
884.5000000000;0.0265820213
885.0000000000;0.0266244970
885.5000000000;0.0265492294
886.0000000000;0.0264842808
886.5000000000;0.0264904033
887.0000000000;0.0263920166
887.5000000000;0.0262696072
888.0000000000;0.0262729879
888.5000000000;0.0262595955
889.0000000000;0.0262187403
889.5000000000;0.0262572821
890.0000000000;0.0262299534
890.5000000000;0.0261017159
891.0000000000;0.0260604024
891.5000000000;0.0260465685
892.0000000000;0.0259486940
892.5000000000;0.0258047059
893.0000000000;0.0257246513
893.5000000000;0.0257732794
894.0000000000;0.0257606320
894.5000000000;0.0256593898
895.0000000000;0.0256272312
895.5000000000;0.0256617665
896.0000000000;0.0256935973
896.5000000000;0.0256491229
897.0000000000;0.0255748108
897.5000000000;0.0255346522
898.0000000000;0.0254972000
898.5000000000;0.0254158732
899.0000000000;0.0252871476
899.5000000000;0.0252559297
900.0000000000;0.0253081284
900.5000000000;0.0252736956
901.0000000000;0.0252665915
901.5000000000;0.0252876282
902.0000000000;0.0250699203
902.5000000000;0.0249099955
903.0000000000;0.0251011048
903.5000000000;0.0252263881
904.0000000000;0.0251698401
904.5000000000;0.0250685066
905.0000000000;0.0248412061
905.5000000000;0.0245767795
906.0000000000;0.0245548114
906.5000000000;0.0246956162
907.0000000000;0.0248035323
907.5000000000;0.0247360673
908.0000000000;0.0245829634
908.5000000000;0.0245012194
909.0000000000;0.0245185196
909.5000000000;0.0245124009
910.0000000000;0.0243661124
910.5000000000;0.0243451260
911.0000000000;0.0244908314
911.5000000000;0.0245418437
912.0000000000;0.0244678948
912.5000000000;0.0243091229
913.0000000000;0.0241084155
913.5000000000;0.0241609048
914.0000000000;0.0245116893
914.5000000000;0.0243657418
915.0000000000;0.0239770524
915.5000000000;0.0241097938
916.0000000000;0.0242578294
916.5000000000;0.0241899733
917.0000000000;0.0241960287
917.5000000000;0.0241253693
918.0000000000;0.0239403062
918.5000000000;0.0239680614
919.0000000000;0.0240236800
919.5000000000;0.0238513481
920.0000000000;0.0236664396
920.5000000000;0.0235355664
921.0000000000;0.0234301537
921.5000000000;0.0235136934
922.0000000000;0.0236904956
922.5000000000;0.0236429311
923.0000000000;0.0235078074
923.5000000000;0.0234215166
924.0000000000;0.0233312566
924.5000000000;0.0233696364
925.0000000000;0.0235660411
925.5000000000;0.0235674363
926.0000000000;0.0233951770
926.5000000000;0.0232687183
927.0000000000;0.0231484771
927.5000000000;0.0231471416
928.0000000000;0.0234107822
928.5000000000;0.0233744979
929.0000000000;0.0229842030
929.5000000000;0.0230022799
930.0000000000;0.0231326725
930.5000000000;0.0229823478
931.0000000000;0.0228544772
931.5000000000;0.0228421707
932.0000000000;0.0228540450
932.5000000000;0.0227871276
933.0000000000;0.0227522012
933.5000000000;0.0228934679
934.0000000000;0.0227678958
934.5000000000;0.0224183183
935.0000000000;0.0224798862
935.5000000000;0.0226063672
936.0000000000;0.0225325041
936.5000000000;0.0226847120
937.0000000000;0.0227683224
937.5000000000;0.0224790536
938.0000000000;0.0224181116
938.5000000000;0.0225064158
939.0000000000;0.0223295223
939.5000000000;0.0223455280
940.0000000000;0.0225569364
940.5000000000;0.0224551745
941.0000000000;0.0222835820
941.5000000000;0.0222560894
942.0000000000;0.0222348515
942.5000000000;0.0223081671
943.0000000000;0.0225396398
943.5000000000;0.0227248762
944.0000000000;0.0227058511
944.5000000000;0.0224469658
945.0000000000;0.0221192241
945.5000000000;0.0218916666
946.0000000000;0.0219078772
946.5000000000;0.0223239362
947.0000000000;0.0226397142
947.5000000000;0.0219539702
948.0000000000;0.0215672366
948.5000000000;0.0221790988
949.0000000000;0.0223687887
949.5000000000;0.0221348312
950.0000000000;0.0220142584
950.5000000000;0.0219202898
951.0000000000;0.0219233818
951.5000000000;0.0220786296
952.0000000000;0.0218973216
952.5000000000;0.0215819273
953.0000000000;0.0218007062
953.5000000000;0.0218753554
954.0000000000;0.0215751547
954.5000000000;0.0216260143
955.0000000000;0.0218811873
955.5000000000;0.0219711252
956.0000000000;0.0218171887
956.5000000000;0.0215168279
957.0000000000;0.0212601237
957.5000000000;0.0212396365
958.0000000000;0.0213435572
958.5000000000;0.0213566292
959.0000000000;0.0214716513
959.5000000000;0.0216990914
960.0000000000;0.0218243618
960.5000000000;0.0218268782
961.0000000000;0.0216520894
961.5000000000;0.0211884994
962.0000000000;0.0207567737
962.5000000000;0.0207404289
963.0000000000;0.0212415718
963.5000000000;0.0216058586
964.0000000000;0.0212953221
964.5000000000;0.0209913906
965.0000000000;0.0210082959
965.5000000000;0.0211772192
966.0000000000;0.0211076327
966.5000000000;0.0208232254
967.0000000000;0.0207369421
967.5000000000;0.0209567919
968.0000000000;0.0213615336
968.5000000000;0.0216457471
969.0000000000;0.0214653481
969.5000000000;0.0208542161
970.0000000000;0.0204797871
970.5000000000;0.0206522718
971.0000000000;0.0211325083
971.5000000000;0.0210400615
972.0000000000;0.0208612643
972.5000000000;0.0214505419
973.0000000000;0.0216122046
973.5000000000;0.0213933457
974.0000000000;0.0218165684
974.5000000000;0.0215092767
975.0000000000;0.0204338208
975.5000000000;0.0205382295
976.0000000000;0.0210484136
976.5000000000;0.0209752060
977.0000000000;0.0206831619
977.5000000000;0.0204709172
978.0000000000;0.0205020253
978.5000000000;0.0208002254
979.0000000000;0.0208606347
979.5000000000;0.0203811713
980.0000000000;0.0204824153
980.5000000000;0.0209607705
981.0000000000;0.0207261685
981.5000000000;0.0203712620
982.0000000000;0.0202780645
982.5000000000;0.0202439856
983.0000000000;0.0205043647
983.5000000000;0.0209214091
984.0000000000;0.0207798313
984.5000000000;0.0205026679
985.0000000000;0.0205544978
985.5000000000;0.0205854010
986.0000000000;0.0207452904
986.5000000000;0.0211491250
987.0000000000;0.0211109985
987.5000000000;0.0206459779
988.0000000000;0.0203164686
988.5000000000;0.0205104630
989.0000000000;0.0207483955
989.5000000000;0.0201787557
990.0000000000;0.0196254682
990.5000000000;0.0197319202
991.0000000000;0.0202760231
991.5000000000;0.0204014536
992.0000000000;0.0199404806
992.5000000000;0.0198956188
993.0000000000;0.0199352354
993.5000000000;0.0196504649
994.0000000000;0.0196997449
994.5000000000;0.0201800223
995.0000000000;0.0207223278
995.5000000000;0.0208327584
996.0000000000;0.0206606314
996.5000000000;0.0205847509
997.0000000000;0.0201600473
997.5000000000;0.0199423619
998.0000000000;0.0208916795
998.5000000000;0.0210666321
999.0000000000;0.0199939124
999.5000000000;0.0195687823
1000.0000000000;0.0198295098
1000.5000000000;0.0202696286
1001.0000000000;0.0206151232
1001.5000000000;0.0205632858
1002.0000000000;0.0202337988
1002.5000000000;0.0204551835
1003.0000000000;0.0207361504
1003.5000000000;0.0203940496
1004.0000000000;0.0201749876
1004.5000000000;0.0204301011
1005.0000000000;0.0208604448
1005.5000000000;0.0206054952
1006.0000000000;0.0203973223
1006.5000000000;0.0214520246
1007.0000000000;0.0210022274
1007.5000000000;0.0191232990
1008.0000000000;0.0192785766
1008.5000000000;0.0202516299
1009.0000000000;0.0205938090
1009.5000000000;0.0206714030
1010.0000000000;0.0207411926
1010.5000000000;0.0210419428
1011.0000000000;0.0217576567
1011.5000000000;0.0214621034
1012.0000000000;0.0198314618
1012.5000000000;0.0202829801
1013.0000000000;0.0219477154
1013.5000000000;0.0220148824
1014.0000000000;0.0208059549
1014.5000000000;0.0203354713
1015.0000000000;0.0220575575
1015.5000000000;0.0225729030
1016.0000000000;0.0211472362
1016.5000000000;0.0202738401
1017.0000000000;0.0206785295
1017.5000000000;0.0216074139
1018.0000000000;0.0215946995
1018.5000000000;0.0214937292
1019.0000000000;0.0219489969
1019.5000000000;0.0222225972
