182.5000000000;0.9629023671
183.0000000000;0.9884012938
183.5000000000;1.0125625134
184.0000000000;1.0379962921
184.5000000000;1.0745297670
185.0000000000;1.1355465651
185.5000000000;1.2035295963
186.0000000000;1.2663692236
186.5000000000;1.4268723726
187.0000000000;1.7150504589
187.5000000000;1.8971790075
188.0000000000;1.9772348404
188.5000000000;2.1292958260
189.0000000000;2.3576703072
189.5000000000;2.4940721989
190.0000000000;2.5291748047
190.5000000000;2.5528044701
191.0000000000;2.6242156029
191.5000000000;2.7454121113
192.0000000000;2.7913980484
192.5000000000;2.7348735332
193.0000000000;2.7171633244
193.5000000000;2.7599954605
194.0000000000;2.8126630783
194.5000000000;2.8467965126
195.0000000000;2.8463225365
195.5000000000;2.8351736069
196.0000000000;2.8412711620
196.5000000000;2.8827366829
197.0000000000;2.9334254265
197.5000000000;2.9593803883
198.0000000000;2.9956429005
198.5000000000;3.0466051102
199.0000000000;3.0543863773
199.5000000000;3.0470619202
200.0000000000;3.0835926533
200.5000000000;3.1457748413
201.0000000000;3.1970069408
201.5000000000;3.2085959911
202.0000000000;3.1968827248
202.5000000000;3.2028019428
203.0000000000;3.2250015736
203.5000000000;3.2469265461
204.0000000000;3.2478787899
204.5000000000;3.2403974533
205.0000000000;3.2695305347
205.5000000000;3.2876377106
206.0000000000;3.2218658924
206.5000000000;3.1635241508
207.0000000000;3.1667187214
207.5000000000;3.2096781731
208.0000000000;3.2271921635
208.5000000000;3.1500210762
209.0000000000;3.1089949608
209.5000000000;3.1747026443
210.0000000000;3.1861078739
210.5000000000;3.1135499477
211.0000000000;3.1141297817
211.5000000000;3.1664822102
212.0000000000;3.1841459274
212.5000000000;3.1641013622
213.0000000000;3.1412200928
213.5000000000;3.1574778557
214.0000000000;3.2118110657
214.5000000000;3.2696177959
215.0000000000;3.2775216103
215.5000000000;3.2306766510
216.0000000000;3.2088608742
216.5000000000;3.2316524982
217.0000000000;3.2749602795
217.5000000000;3.2944800854
218.0000000000;3.2702040672
218.5000000000;3.2707622051
219.0000000000;3.3181416988
219.5000000000;3.3706834316
220.0000000000;3.3902716637
220.5000000000;3.3685243130
221.0000000000;3.3748409748
221.5000000000;3.4293651581
222.0000000000;3.4340674877
222.5000000000;3.3891415596
223.0000000000;3.3718819618
223.5000000000;3.3578567505
224.0000000000;3.3212296963
224.5000000000;3.3022499084
225.0000000000;3.3088512421
225.5000000000;3.3109617233
226.0000000000;3.3109893799
226.5000000000;3.3141255379
227.0000000000;3.2687532902
227.5000000000;3.2053017616
228.0000000000;3.2458820343
228.5000000000;3.3372027874
229.0000000000;3.2826488018
229.5000000000;3.2161571980
230.0000000000;3.2337076664
230.5000000000;3.2337296009
231.0000000000;3.2068724632
231.5000000000;3.2342307568
232.0000000000;3.2832052708
232.5000000000;3.2806348801
233.0000000000;3.2310521603
233.5000000000;3.1869225502
234.0000000000;3.2067615986
234.5000000000;3.2433984280
235.0000000000;3.2146494389
235.5000000000;3.1826419830
236.0000000000;3.1991231441
236.5000000000;3.2671716213
237.0000000000;3.3292446136
237.5000000000;3.2875361443
238.0000000000;3.2460565567
238.5000000000;3.2707757950
239.0000000000;3.2734711170
239.5000000000;3.2397112846
240.0000000000;3.2350513935
240.5000000000;3.2544579506
241.0000000000;3.2687218189
241.5000000000;3.2625045776
242.0000000000;3.2513055801
242.5000000000;3.2780144215
243.0000000000;3.3132603168
243.5000000000;3.2925524712
244.0000000000;3.2519032955
244.5000000000;3.2317764759
245.0000000000;3.2408027649
245.5000000000;3.2619013786
246.0000000000;3.2611105442
246.5000000000;3.2539968491
247.0000000000;3.2641613483
247.5000000000;3.2837347984
248.0000000000;3.2834265232
248.5000000000;3.2297761440
249.0000000000;3.1934080124
249.5000000000;3.2359251976
250.0000000000;3.2531487942
250.5000000000;3.1946961880
251.0000000000;3.1766386032
251.5000000000;3.1875634193
252.0000000000;3.1513834000
252.5000000000;3.1163325310
253.0000000000;3.1201353073
253.5000000000;3.1220374107
254.0000000000;3.1165435314
254.5000000000;3.1313633919
255.0000000000;3.1143534184
255.5000000000;3.0419418812
256.0000000000;3.0288903713
256.5000000000;3.0805051327
257.0000000000;3.0648689270
257.5000000000;3.0044438839
258.0000000000;2.9822461605
258.5000000000;2.9885466099
259.0000000000;3.0026502609
259.5000000000;3.0073175430
260.0000000000;2.9894368649
260.5000000000;2.9486052990
261.0000000000;2.9132690430
261.5000000000;2.8992307186
262.0000000000;2.8940396309
262.5000000000;2.8812170029
263.0000000000;2.8454740047
263.5000000000;2.7842185497
264.0000000000;2.7063691616
264.5000000000;2.6280047894
265.0000000000;2.5584704876
265.5000000000;2.5009248257
266.0000000000;2.4477241039
266.5000000000;2.3954594135
267.0000000000;2.3600959778
267.5000000000;2.3403868675
268.0000000000;2.3134469986
268.5000000000;2.2798767090
269.0000000000;2.2521533966
269.5000000000;2.2339580059
270.0000000000;2.2197878361
270.5000000000;2.1929340363
271.0000000000;2.1608352661
271.5000000000;2.1431827545
272.0000000000;2.1266496181
272.5000000000;2.0982010365
273.0000000000;2.0716185570
273.5000000000;2.0497448444
274.0000000000;2.0225815773
274.5000000000;1.9919863939
275.0000000000;1.9635637999
275.5000000000;1.9368747473
276.0000000000;1.9098500013
276.5000000000;1.8803547621
277.0000000000;1.8518382311
277.5000000000;1.8288236856
278.0000000000;1.8064427376
278.5000000000;1.7818851471
279.0000000000;1.7604795694
279.5000000000;1.7417283058
280.0000000000;1.7206035852
280.5000000000;1.6993433237
281.0000000000;1.6801568270
281.5000000000;1.6583822966
282.0000000000;1.6339173317
282.5000000000;1.6120554209
283.0000000000;1.5921376944
283.5000000000;1.5712909698
284.0000000000;1.5496742725
284.5000000000;1.5273134708
285.0000000000;1.5032302141
285.5000000000;1.4803304672
286.0000000000;1.4623199701
286.5000000000;1.4449610710
287.0000000000;1.4256938696
287.5000000000;1.4085534811
288.0000000000;1.3937209845
288.5000000000;1.3786281347
289.0000000000;1.3648357391
289.5000000000;1.3535877466
290.0000000000;1.3420536518
290.5000000000;1.3303855658
291.0000000000;1.3218770027
291.5000000000;1.3146036863
292.0000000000;1.3057522774
292.5000000000;1.2977262735
293.0000000000;1.2914901972
293.5000000000;1.2850219011
294.0000000000;1.2788046598
294.5000000000;1.2744432688
295.0000000000;1.2712957859
295.5000000000;1.2682672739
296.0000000000;1.2646039724
296.5000000000;1.2608388662
297.0000000000;1.2582008839
297.5000000000;1.2564277649
298.0000000000;1.2549021244
298.5000000000;1.2533907890
299.0000000000;1.2524731159
299.5000000000;1.2531590462
300.0000000000;1.2540694475
300.5000000000;1.2537139654
301.0000000000;1.2533601522
301.5000000000;1.2542074919
302.0000000000;1.2565946579
302.5000000000;1.2593222857
303.0000000000;1.2610566616
303.5000000000;1.2631567717
304.0000000000;1.2664483786
304.5000000000;1.2699098587
305.0000000000;1.2730957270
305.5000000000;1.2761682272
306.0000000000;1.2795103788
306.5000000000;1.2834990025
307.0000000000;1.2883594036
307.5000000000;1.2932230234
308.0000000000;1.2965990305
308.5000000000;1.2998158932
309.0000000000;1.3045506477
309.5000000000;1.3102480173
310.0000000000;1.3159346581
310.5000000000;1.3207932711
311.0000000000;1.3258122206
311.5000000000;1.3321673870
312.0000000000;1.3383299112
312.5000000000;1.3435677290
313.0000000000;1.3492045403
313.5000000000;1.3551913500
314.0000000000;1.3606590033
314.5000000000;1.3658571243
315.0000000000;1.3713257313
315.5000000000;1.3775163889
316.0000000000;1.3842519522
316.5000000000;1.3907945156
317.0000000000;1.3964107037
317.5000000000;1.4010323286
318.0000000000;1.4061380625
318.5000000000;1.4117914438
319.0000000000;1.4164767265
319.5000000000;1.4204107523
320.0000000000;1.4245414734
320.5000000000;1.4293506145
321.0000000000;1.4349783659
321.5000000000;1.4410762787
322.0000000000;1.4458750486
322.5000000000;1.4481598139
323.0000000000;1.4521931410
323.5000000000;1.4591038227
324.0000000000;1.4629418850
324.5000000000;1.4639914036
325.0000000000;1.4668847322
325.5000000000;1.4720745087
326.0000000000;1.4776654243
326.5000000000;1.4799082279
327.0000000000;1.4801986217
327.5000000000;1.4836962223
328.0000000000;1.4886901379
328.5000000000;1.4922565222
329.0000000000;1.4954131842
329.5000000000;1.4987733364
330.0000000000;1.5017428398
330.5000000000;1.5033528805
331.0000000000;1.5036267042
331.5000000000;1.5059047937
332.0000000000;1.5112797022
332.5000000000;1.5169552565
333.0000000000;1.5196813345
333.5000000000;1.5181157589
334.0000000000;1.5183458328
334.5000000000;1.5229954720
335.0000000000;1.5268275738
335.5000000000;1.5289175510
336.0000000000;1.5314059258
336.5000000000;1.5338828564
337.0000000000;1.5361320972
337.5000000000;1.5396925211
338.0000000000;1.5440031290
338.5000000000;1.5468907356
339.0000000000;1.5485596657
339.5000000000;1.5500100851
340.0000000000;1.5519787073
340.5000000000;1.5555417538
341.0000000000;1.5616616011
341.5000000000;1.5675041676
342.0000000000;1.5705951452
342.5000000000;1.5744739771
343.0000000000;1.5796447992
343.5000000000;1.5823140144
344.0000000000;1.5854898691
344.5000000000;1.5931311846
345.0000000000;1.5990358591
345.5000000000;1.6010208130
346.0000000000;1.6056773663
346.5000000000;1.6116385460
347.0000000000;1.6140623093
347.5000000000;1.6177037954
348.0000000000;1.6260963678
348.5000000000;1.6360081434
349.0000000000;1.6439923048
349.5000000000;1.6479200125
350.0000000000;1.6510756016
350.5000000000;1.6567420959
351.0000000000;1.6643711329
351.5000000000;1.6737204790
352.0000000000;1.6846681833
352.5000000000;1.6928166151
353.0000000000;1.6961164474
353.5000000000;1.7031161785
354.0000000000;1.7152720690
354.5000000000;1.7246927023
355.0000000000;1.7294685841
355.5000000000;1.7327305079
356.0000000000;1.7425106764
356.5000000000;1.7594125271
357.0000000000;1.7729349136
357.5000000000;1.7803553343
358.0000000000;1.7852119207
358.5000000000;1.7936540842
359.0000000000;1.8063567877
359.5000000000;1.8123027086
360.0000000000;1.8187003136
360.5000000000;1.8390866518
361.0000000000;1.8578605652
361.5000000000;1.8679581881
362.0000000000;1.8727450371
362.5000000000;1.8800681829
363.0000000000;1.8993290663
363.5000000000;1.9177711010
364.0000000000;1.9244509935
364.5000000000;1.9348818064
365.0000000000;1.9527585506
365.5000000000;1.9673568010
366.0000000000;1.9779068232
366.5000000000;1.9876040220
367.0000000000;1.9984288216
367.5000000000;2.0113959312
368.0000000000;2.0259869099
368.5000000000;2.0405583382
369.0000000000;2.0538139343
369.5000000000;2.0669779778
370.0000000000;2.0792379379
370.5000000000;2.0868289471
371.0000000000;2.0951168537
371.5000000000;2.1118609905
372.0000000000;2.1297018528
372.5000000000;2.1413352489
373.0000000000;2.1476142406
373.5000000000;2.1588454247
374.0000000000;2.1863183975
374.5000000000;2.2123925686
375.0000000000;2.2210829258
375.5000000000;2.2231094837
376.0000000000;2.2276332378
376.5000000000;2.2383456230
377.0000000000;2.2515871525
377.5000000000;2.2626650333
378.0000000000;2.2717585564
378.5000000000;2.2790265083
379.0000000000;2.2841167450
379.5000000000;2.2911632061
380.0000000000;2.3033614159
380.5000000000;2.3154351711
381.0000000000;2.3225915432
381.5000000000;2.3244357109
382.0000000000;2.3301768303
382.5000000000;2.3473069668
383.0000000000;2.3655748367
383.5000000000;2.3744888306
384.0000000000;2.3680396080
384.5000000000;2.3598167896
385.0000000000;2.3660929203
385.5000000000;2.3799865246
386.0000000000;2.3888688087
386.5000000000;2.3815219402
387.0000000000;2.3754942417
387.5000000000;2.3908910751
388.0000000000;2.3933882713
388.5000000000;2.3707430363
389.0000000000;2.3646018505
389.5000000000;2.3785569668
390.0000000000;2.3898735046
390.5000000000;2.3903748989
391.0000000000;2.3851795197
391.5000000000;2.3916978836
392.0000000000;2.4054462910
392.5000000000;2.4081714153
393.0000000000;2.4134125710
393.5000000000;2.4265017509
394.0000000000;2.4127309322
394.5000000000;2.3845672607
395.0000000000;2.3852660656
395.5000000000;2.4006359577
396.0000000000;2.4028944969
396.5000000000;2.3864762783
397.0000000000;2.3694427013
397.5000000000;2.3787436485
398.0000000000;2.3906047344
398.5000000000;2.3794436455
399.0000000000;2.3765196800
399.5000000000;2.3887619972
400.0000000000;2.3881778717
400.5000000000;2.3712472916
401.0000000000;2.3534369469
401.5000000000;2.3607180119
402.0000000000;2.3896608353
402.5000000000;2.3951675892
403.0000000000;2.3733572960
403.5000000000;2.3480186462
404.0000000000;2.3379845619
404.5000000000;2.3420057297
405.0000000000;2.3364231586
405.5000000000;2.3313004971
406.0000000000;2.3445405960
406.5000000000;2.3420219421
407.0000000000;2.3095014095
407.5000000000;2.2841362953
408.0000000000;2.2743811607
408.5000000000;2.2697346210
409.0000000000;2.2659962177
409.5000000000;2.2599203587
410.0000000000;2.2473702431
410.5000000000;2.2307455540
411.0000000000;2.2154119015
411.5000000000;2.2004878521
412.0000000000;2.1863856316
412.5000000000;2.1779859066
413.0000000000;2.1693823338
413.5000000000;2.1496050358
414.0000000000;2.1281635761
414.5000000000;2.1144919395
415.0000000000;2.1029419899
415.5000000000;2.0881998539
416.0000000000;2.0677428246
416.5000000000;2.0471053123
417.0000000000;2.0305712223
417.5000000000;2.0115985870
418.0000000000;1.9905366898
418.5000000000;1.9738807678
419.0000000000;1.9591332674
419.5000000000;1.9419890642
420.0000000000;1.9210563898
420.5000000000;1.8982661963
421.0000000000;1.8780869246
421.5000000000;1.8589571714
422.0000000000;1.8382111788
422.5000000000;1.8193047047
423.0000000000;1.8024579287
423.5000000000;1.7828694582
424.0000000000;1.7607699633
424.5000000000;1.7378618717
425.0000000000;1.7166031599
425.5000000000;1.6977949142
426.0000000000;1.6764111519
426.5000000000;1.6531316042
427.0000000000;1.6332384348
427.5000000000;1.6155469418
428.0000000000;1.5967816114
428.5000000000;1.5763854980
429.0000000000;1.5544755459
429.5000000000;1.5325453281
430.0000000000;1.5113672018
430.5000000000;1.4909917116
431.0000000000;1.4731793404
431.5000000000;1.4554308653
432.0000000000;1.4341374636
432.5000000000;1.4128718376
433.0000000000;1.3940186501
433.5000000000;1.3759354353
434.0000000000;1.3586156368
434.5000000000;1.3403197527
435.0000000000;1.3208765984
435.5000000000;1.3028010130
436.0000000000;1.2851011753
436.5000000000;1.2671910524
437.0000000000;1.2499161959
437.5000000000;1.2325476408
438.0000000000;1.2148426771
438.5000000000;1.1980812550
439.0000000000;1.1823307276
439.5000000000;1.1666840315
440.0000000000;1.1506460905
440.5000000000;1.1341226101
441.0000000000;1.1181584597
441.5000000000;1.1038858891
442.0000000000;1.0894612074
442.5000000000;1.0738285780
443.0000000000;1.0583392382
443.5000000000;1.0435609818
444.0000000000;1.0294138193
444.5000000000;1.0155011415
445.0000000000;1.0017929077
445.5000000000;0.9882873893
446.0000000000;0.9747511148
446.5000000000;0.9613661170
447.0000000000;0.9483159184
447.5000000000;0.9352632165
448.0000000000;0.9222541451
448.5000000000;0.9097206593
449.0000000000;0.8976970315
449.5000000000;0.8858156800
450.0000000000;0.8740403056
450.5000000000;0.8624154329
451.0000000000;0.8506656885
451.5000000000;0.8388741016
452.0000000000;0.8274524212
452.5000000000;0.8162994385
453.0000000000;0.8051332235
453.5000000000;0.7942240238
454.0000000000;0.7837164402
454.5000000000;0.7733890414
455.0000000000;0.7631869912
455.5000000000;0.7531371117
456.0000000000;0.7433249354
456.5000000000;0.7336940765
457.0000000000;0.7241051197
457.5000000000;0.7145525217
458.0000000000;0.7051174641
458.5000000000;0.6961307526
459.0000000000;0.6872311234
459.5000000000;0.6778236032
460.0000000000;0.6682996154
460.5000000000;0.6591380835
461.0000000000;0.6502329111
461.5000000000;0.6416907907
462.0000000000;0.6333586574
462.5000000000;0.6251019835
463.0000000000;0.6173886061
463.5000000000;0.6097954512
464.0000000000;0.6016106606
464.5000000000;0.5934582949
465.0000000000;0.5856553316
465.5000000000;0.5778177977
466.0000000000;0.5701390505
466.5000000000;0.5627943873
467.0000000000;0.5553193092
467.5000000000;0.5477437377
468.0000000000;0.5404630303
468.5000000000;0.5334855318
469.0000000000;0.5264022350
469.5000000000;0.5189986229
470.0000000000;0.5117449760
470.5000000000;0.5051687360
471.0000000000;0.4987265468
471.5000000000;0.4920472205
472.0000000000;0.4856841862
472.5000000000;0.4796195030
473.0000000000;0.4734994173
473.5000000000;0.4673898220
474.0000000000;0.4611501396
474.5000000000;0.4548333287
475.0000000000;0.4488014579
475.5000000000;0.4431287050
476.0000000000;0.4375838339
476.5000000000;0.4319919646
477.0000000000;0.4264029562
477.5000000000;0.4207988977
478.0000000000;0.4152309000
478.5000000000;0.4098449647
479.0000000000;0.4045456350
479.5000000000;0.3994480968
480.0000000000;0.3945412040
480.5000000000;0.3894263804
481.0000000000;0.3843937814
481.5000000000;0.3797139823
482.0000000000;0.3749782443
482.5000000000;0.3701948225
483.0000000000;0.3656871319
483.5000000000;0.3612348437
484.0000000000;0.3568876684
484.5000000000;0.3532143831
485.0000000000;0.3489065766
485.5000000000;0.3435998857
486.0000000000;0.3403593004
486.5000000000;0.3386380374
487.0000000000;0.3347710669
487.5000000000;0.3286154568
488.0000000000;0.3238205612
488.5000000000;0.3201918900
489.0000000000;0.3162961900
489.5000000000;0.3125767112
490.0000000000;0.3091972768
490.5000000000;0.3057157695
491.0000000000;0.3021321595
491.5000000000;0.2986245155
492.0000000000;0.2952517867
492.5000000000;0.2920788825
493.0000000000;0.2890912592
493.5000000000;0.2860427499
494.0000000000;0.2826567292
494.5000000000;0.2790479660
495.0000000000;0.2756029963
495.5000000000;0.2726454735
496.0000000000;0.2698902786
496.5000000000;0.2671064138
497.0000000000;0.2644218206
497.5000000000;0.2617403269
498.0000000000;0.2590118051
498.5000000000;0.2564779222
499.0000000000;0.2541452050
499.5000000000;0.2515755892
500.0000000000;0.2487936169
500.5000000000;0.2462848723
501.0000000000;0.2441003770
501.5000000000;0.2420144230
502.0000000000;0.2395788580
502.5000000000;0.2369402349
503.0000000000;0.2347494066
503.5000000000;0.2326481938
504.0000000000;0.2302640527
504.5000000000;0.2280683219
505.0000000000;0.2261345536
505.5000000000;0.2241401672
506.0000000000;0.2220570743
506.5000000000;0.2199709266
507.0000000000;0.2180219740
507.5000000000;0.2161590010
508.0000000000;0.2142517716
508.5000000000;0.2123190910
509.0000000000;0.2103894502
509.5000000000;0.2086154073
510.0000000000;0.2069769651
510.5000000000;0.2052782327
511.0000000000;0.2035313249
511.5000000000;0.2018560320
512.0000000000;0.2003947198
512.5000000000;0.1989352703
513.0000000000;0.1971468776
513.5000000000;0.1953417361
514.0000000000;0.1937733293
514.5000000000;0.1922671199
515.0000000000;0.1907524914
515.5000000000;0.1892665774
516.0000000000;0.1877887994
516.5000000000;0.1862915903
517.0000000000;0.1848141402
517.5000000000;0.1834494025
518.0000000000;0.1822447628
518.5000000000;0.1809514761
519.0000000000;0.1794878095
519.5000000000;0.1781652868
520.0000000000;0.1769393831
520.5000000000;0.1755779982
521.0000000000;0.1742744148
521.5000000000;0.1731161177
522.0000000000;0.1717991233
522.5000000000;0.1704226881
523.0000000000;0.1692981273
523.5000000000;0.1682145149
524.0000000000;0.1669893265
524.5000000000;0.1657347232
525.0000000000;0.1645710170
525.5000000000;0.1635524035
526.0000000000;0.1625454128
526.5000000000;0.1614805460
527.0000000000;0.1604426801
527.5000000000;0.1594264358
528.0000000000;0.1583827138
528.5000000000;0.1573298872
529.0000000000;0.1562927514
529.5000000000;0.1552686542
530.0000000000;0.1542806327
530.5000000000;0.1533429474
531.0000000000;0.1523590088
531.5000000000;0.1513260156
532.0000000000;0.1503843218
532.5000000000;0.1495070308
533.0000000000;0.1486139745
533.5000000000;0.1477590501
534.0000000000;0.1469216347
534.5000000000;0.1459837109
535.0000000000;0.1450588554
535.5000000000;0.1442779750
536.0000000000;0.1434201151
536.5000000000;0.1424510181
537.0000000000;0.1416277140
537.5000000000;0.1408887953
538.0000000000;0.1400819421
538.5000000000;0.1392889172
539.0000000000;0.1385394931
539.5000000000;0.1377668679
540.0000000000;0.1369369924
540.5000000000;0.1360604018
541.0000000000;0.1352121979
541.5000000000;0.1344493330
542.0000000000;0.1337865293
542.5000000000;0.1331122220
543.0000000000;0.1323103160
543.5000000000;0.1314433217
544.0000000000;0.1306125522
544.5000000000;0.1298811287
545.0000000000;0.1291839480
545.5000000000;0.1284477562
546.0000000000;0.1276989281
546.5000000000;0.1269908249
547.0000000000;0.1263666749
547.5000000000;0.1257787347
548.0000000000;0.1251626760
548.5000000000;0.1244847551
549.0000000000;0.1237186342
549.5000000000;0.1228830665
550.0000000000;0.1221254840
550.5000000000;0.1214976907
551.0000000000;0.1208126694
551.5000000000;0.1200803667
552.0000000000;0.1194529459
552.5000000000;0.1188458875
553.0000000000;0.1181795523
553.5000000000;0.1175473183
554.0000000000;0.1169598475
554.5000000000;0.1163469180
555.0000000000;0.1157115102
555.5000000000;0.1150828302
556.0000000000;0.1144631356
556.5000000000;0.1138434932
557.0000000000;0.1132262349
557.5000000000;0.1126502007
558.0000000000;0.1120918393
558.5000000000;0.1114307493
559.0000000000;0.1107454970
559.5000000000;0.1101885960
560.0000000000;0.1096593440
560.5000000000;0.1090760976
561.0000000000;0.1084742770
561.5000000000;0.1079084277
562.0000000000;0.1074014828
562.5000000000;0.1068398729
563.0000000000;0.1061991155
563.5000000000;0.1055912003
564.0000000000;0.1050434262
564.5000000000;0.1045292094
565.0000000000;0.1039929166
565.5000000000;0.1034152880
566.0000000000;0.1028301418
566.5000000000;0.1022741795
567.0000000000;0.1017867997
567.5000000000;0.1013902277
568.0000000000;0.1011307463
568.5000000000;0.1010704488
569.0000000000;0.1009490713
569.5000000000;0.1005590558
570.0000000000;0.1001383513
570.5000000000;0.0996547639
571.0000000000;0.0989353508
571.5000000000;0.0984861329
572.0000000000;0.0984729454
572.5000000000;0.0981418937
573.0000000000;0.0975357741
573.5000000000;0.0971388444
574.0000000000;0.0969015732
574.5000000000;0.0966634154
575.0000000000;0.0963827148
575.5000000000;0.0959821418
576.0000000000;0.0953293070
576.5000000000;0.0942607746
577.0000000000;0.0931571424
577.5000000000;0.0931769609
578.0000000000;0.0934488103
578.5000000000;0.0923759937
579.0000000000;0.0906660259
579.5000000000;0.0895304009
580.0000000000;0.0896413252
580.5000000000;0.0904030874
581.0000000000;0.0908840373
581.5000000000;0.0914773196
582.0000000000;0.0919839963
582.5000000000;0.0914133266
583.0000000000;0.0901756287
583.5000000000;0.0894417092
584.0000000000;0.0894150510
584.5000000000;0.0895840973
585.0000000000;0.0891950876
585.5000000000;0.0884712413
586.0000000000;0.0878698155
586.5000000000;0.0873152018
587.0000000000;0.0868115276
587.5000000000;0.0865006223
588.0000000000;0.0862969160
588.5000000000;0.0859962404
589.0000000000;0.0853562951
589.5000000000;0.0844632238
590.0000000000;0.0837231725
590.5000000000;0.0831842870
591.0000000000;0.0827540755
591.5000000000;0.0823979676
592.0000000000;0.0820096359
592.5000000000;0.0815188885
593.0000000000;0.0811564773
593.5000000000;0.0808897167
594.0000000000;0.0802734420
594.5000000000;0.0795574933
595.0000000000;0.0792064369
595.5000000000;0.0787551925
596.0000000000;0.0779759288
596.5000000000;0.0773056597
597.0000000000;0.0768004954
597.5000000000;0.0762675032
598.0000000000;0.0756596550
598.5000000000;0.0750274956
599.0000000000;0.0745135918
599.5000000000;0.0740557536
600.0000000000;0.0735672340
600.5000000000;0.0732133090
601.0000000000;0.0730013996
601.5000000000;0.0727308393
602.0000000000;0.0722792000
602.5000000000;0.0716886222
603.0000000000;0.0712487549
603.5000000000;0.0709755123
604.0000000000;0.0706421956
604.5000000000;0.0701676607
605.0000000000;0.0696460977
605.5000000000;0.0692714602
606.0000000000;0.0690361783
606.5000000000;0.0688343942
607.0000000000;0.0686260089
607.5000000000;0.0683997944
608.0000000000;0.0681762695
608.5000000000;0.0679214969
609.0000000000;0.0676295906
609.5000000000;0.0675371215
610.0000000000;0.0676084161
610.5000000000;0.0674482211
611.0000000000;0.0671842694
611.5000000000;0.0670783222
612.0000000000;0.0669672564
612.5000000000;0.0668131337
613.0000000000;0.0667685717
613.5000000000;0.0667262822
614.0000000000;0.0665688664
614.5000000000;0.0664193481
615.0000000000;0.0663021505
615.5000000000;0.0661355108
616.0000000000;0.0659029186
616.5000000000;0.0656129345
617.0000000000;0.0653195754
617.5000000000;0.0651328117
618.0000000000;0.0651215985
618.5000000000;0.0651342571
619.0000000000;0.0650638640
619.5000000000;0.0649728924
620.0000000000;0.0648311302
620.5000000000;0.0645589978
621.0000000000;0.0641753152
621.5000000000;0.0638442039
622.0000000000;0.0638078228
622.5000000000;0.0638059378
623.0000000000;0.0635112301
623.5000000000;0.0631278455
624.0000000000;0.0627906621
624.5000000000;0.0624514557
625.0000000000;0.0620347448
625.5000000000;0.0615575910
626.0000000000;0.0612560622
626.5000000000;0.0610940978
627.0000000000;0.0608281679
627.5000000000;0.0605721921
628.0000000000;0.0603912175
628.5000000000;0.0600510910
629.0000000000;0.0596233271
629.5000000000;0.0593314245
630.0000000000;0.0590129122
630.5000000000;0.0585616454
631.0000000000;0.0581188053
631.5000000000;0.0577630550
632.0000000000;0.0575031526
632.5000000000;0.0573058352
633.0000000000;0.0571007021
633.5000000000;0.0568023771
634.0000000000;0.0564872250
634.5000000000;0.0562465601
635.0000000000;0.0560032912
635.5000000000;0.0557492785
636.0000000000;0.0555538498
636.5000000000;0.0553823300
637.0000000000;0.0551953577
637.5000000000;0.0550271273
638.0000000000;0.0548271276
638.5000000000;0.0545086004
639.0000000000;0.0541932844
639.5000000000;0.0539901629
640.0000000000;0.0538724177
640.5000000000;0.0537534133
641.0000000000;0.0535552613
641.5000000000;0.0533442311
642.0000000000;0.0531871021
642.5000000000;0.0530983806
643.0000000000;0.0530619994
643.5000000000;0.0530225001
644.0000000000;0.0528571419
644.5000000000;0.0526098162
645.0000000000;0.0524831787
645.5000000000;0.0524473488
646.0000000000;0.0523955151
646.5000000000;0.0522753112
647.0000000000;0.0521377958
647.5000000000;0.0520827919
648.0000000000;0.0520492904
648.5000000000;0.0519838147
649.0000000000;0.0519265048
649.5000000000;0.0518454723
650.0000000000;0.0516896024
650.5000000000;0.0515412055
651.0000000000;0.0514606163
651.5000000000;0.0514265224
652.0000000000;0.0513587780
652.5000000000;0.0512188561
653.0000000000;0.0511550941
653.5000000000;0.0510524251
654.0000000000;0.0507217050
654.5000000000;0.0514469333
655.0000000000;0.0533629432
655.5000000000;0.0525159612
656.0000000000;0.0524107553
656.5000000000;0.0556490086
657.0000000000;0.0589850470
657.5000000000;0.0531868935
658.0000000000;0.0489905514
658.5000000000;0.0496609956
659.0000000000;0.0494686998
659.5000000000;0.0487766899
660.0000000000;0.0484747477
660.5000000000;0.0482655652
661.0000000000;0.0480896495
661.5000000000;0.0479532108
662.0000000000;0.0476245917
662.5000000000;0.0471929833
663.0000000000;0.0470151454
663.5000000000;0.0468976162
664.0000000000;0.0466131009
664.5000000000;0.0462888330
665.0000000000;0.0459989421
665.5000000000;0.0457190685
666.0000000000;0.0453398377
666.5000000000;0.0448983125
667.0000000000;0.0446605235
667.5000000000;0.0445256792
668.0000000000;0.0442684367
668.5000000000;0.0440037884
669.0000000000;0.0438066572
669.5000000000;0.0436239094
670.0000000000;0.0434279144
670.5000000000;0.0432240553
671.0000000000;0.0430588275
671.5000000000;0.0429024994
672.0000000000;0.0426760241
672.5000000000;0.0424316525
673.0000000000;0.0422163196
673.5000000000;0.0419955812
674.0000000000;0.0417908430
674.5000000000;0.0416326448
675.0000000000;0.0414264500
675.5000000000;0.0411798730
676.0000000000;0.0410467647
676.5000000000;0.0409443863
677.0000000000;0.0407394953
677.5000000000;0.0405018777
678.0000000000;0.0403204486
678.5000000000;0.0402385779
679.0000000000;0.0401372723
679.5000000000;0.0399547480
680.0000000000;0.0398445353
680.5000000000;0.0397736169
681.0000000000;0.0396108590
681.5000000000;0.0394770615
682.0000000000;0.0394195504
682.5000000000;0.0392961949
683.0000000000;0.0391440615
683.5000000000;0.0390636101
684.0000000000;0.0390148573
684.5000000000;0.0390258655
685.0000000000;0.0391790755
685.5000000000;0.0392276645
686.0000000000;0.0389910862
686.5000000000;0.0387206227
687.0000000000;0.0385805629
687.5000000000;0.0385735743
688.0000000000;0.0385347977
688.5000000000;0.0384120680
689.0000000000;0.0383900292
689.5000000000;0.0384610072
690.0000000000;0.0385130309
690.5000000000;0.0385174640
691.0000000000;0.0384894349
691.5000000000;0.0384660326
692.0000000000;0.0384249538
692.5000000000;0.0383583680
693.0000000000;0.0383449420
693.5000000000;0.0383188799
694.0000000000;0.0381412245
694.5000000000;0.0379731506
695.0000000000;0.0379100256
695.5000000000;0.0377927758
696.0000000000;0.0376421735
696.5000000000;0.0375717096
697.0000000000;0.0375641286
697.5000000000;0.0375155471
698.0000000000;0.0372894295
698.5000000000;0.0370299369
699.0000000000;0.0368842743
699.5000000000;0.0366983414
700.0000000000;0.0364896730
700.5000000000;0.0364077017
701.0000000000;0.0363155305
701.5000000000;0.0361137986
702.0000000000;0.0359167755
702.5000000000;0.0357804075
703.0000000000;0.0356746353
703.5000000000;0.0354623012
704.0000000000;0.0351688601
704.5000000000;0.0350021683
705.0000000000;0.0348900147
705.5000000000;0.0347231366
706.0000000000;0.0346066579
706.5000000000;0.0345652737
707.0000000000;0.0345175825
707.5000000000;0.0343415514
708.0000000000;0.0340135805
708.5000000000;0.0336866863
709.0000000000;0.0334276035
709.5000000000;0.0332227647
710.0000000000;0.0330237076
710.5000000000;0.0328164436
711.0000000000;0.0326249674
711.5000000000;0.0324457362
712.0000000000;0.0322820060
712.5000000000;0.0321675204
713.0000000000;0.0320597962
713.5000000000;0.0318774171
714.0000000000;0.0316580907
714.5000000000;0.0314545557
715.0000000000;0.0312872566
715.5000000000;0.0311125480
716.0000000000;0.0308750477
716.5000000000;0.0306062307
717.0000000000;0.0303488038
717.5000000000;0.0301280860
718.0000000000;0.0299257040
718.5000000000;0.0297168344
719.0000000000;0.0295002721
719.5000000000;0.0292570330
720.0000000000;0.0289741307
720.5000000000;0.0287418608
721.0000000000;0.0285750963
721.5000000000;0.0283533484
722.0000000000;0.0280996114
722.5000000000;0.0278902277
723.0000000000;0.0277278386
723.5000000000;0.0276056733
724.0000000000;0.0275051445
724.5000000000;0.0273457430
725.0000000000;0.0271348581
725.5000000000;0.0270575527
726.0000000000;0.0270495005
726.5000000000;0.0269307010
727.0000000000;0.0267539285
727.5000000000;0.0265682284
728.0000000000;0.0263536647
728.5000000000;0.0261611287
729.0000000000;0.0260308348
729.5000000000;0.0258959103
730.0000000000;0.0257809348
730.5000000000;0.0257709436
731.0000000000;0.0257812254
731.5000000000;0.0257166885
732.0000000000;0.0255538356
732.5000000000;0.0253173653
733.0000000000;0.0250873566
733.5000000000;0.0250250492
734.0000000000;0.0251062829
734.5000000000;0.0251241717
735.0000000000;0.0250995345
735.5000000000;0.0250770170
736.0000000000;0.0249691084
736.5000000000;0.0248080119
737.0000000000;0.0246908441
737.5000000000;0.0245507210
738.0000000000;0.0243624095
738.5000000000;0.0242225099
739.0000000000;0.0242021047
739.5000000000;0.0242925249
740.0000000000;0.0243457239
740.5000000000;0.0242877211
741.0000000000;0.0241447557
741.5000000000;0.0240247864
742.0000000000;0.0239735618
742.5000000000;0.0238895398
743.0000000000;0.0237741973
743.5000000000;0.0236941595
744.0000000000;0.0236820281
744.5000000000;0.0236958526
745.0000000000;0.0236399006
745.5000000000;0.0235513039
746.0000000000;0.0234946925
746.5000000000;0.0234743059
747.0000000000;0.0234922618
747.5000000000;0.0235311352
748.0000000000;0.0234808512
748.5000000000;0.0233430993
749.0000000000;0.0232783910
749.5000000000;0.0232316758
750.0000000000;0.0231367312
750.5000000000;0.0231637508
751.0000000000;0.0232115854
751.5000000000;0.0230088420
752.0000000000;0.0228149761
752.5000000000;0.0228303000
753.0000000000;0.0228891522
753.5000000000;0.0229297467
754.0000000000;0.0229322948
754.5000000000;0.0227597076
755.0000000000;0.0224856157
755.5000000000;0.0223905705
756.0000000000;0.0224879440
756.5000000000;0.0226569828
757.0000000000;0.0227365233
757.5000000000;0.0226887688
758.0000000000;0.0225705914
758.5000000000;0.0224672835
759.0000000000;0.0223745815
759.5000000000;0.0221887287
760.0000000000;0.0219203886
760.5000000000;0.0216608401
761.0000000000;0.0215575993
761.5000000000;0.0214584544
762.0000000000;0.0210951939
762.5000000000;0.0207837094
763.0000000000;0.0207404364
763.5000000000;0.0207919292
764.0000000000;0.0207429547
764.5000000000;0.0205188971
765.0000000000;0.0203381404
765.5000000000;0.0201983377
766.0000000000;0.0199152362
766.5000000000;0.0195672363
767.0000000000;0.0193007160
767.5000000000;0.0192235149
768.0000000000;0.0193002485
768.5000000000;0.0194090642
769.0000000000;0.0194215477
769.5000000000;0.0192229226
770.0000000000;0.0187680200
770.5000000000;0.0183745101
771.0000000000;0.0182561520
771.5000000000;0.0181779787
772.0000000000;0.0179321002
772.5000000000;0.0174977016
773.0000000000;0.0172832329
773.5000000000;0.0173317399
774.0000000000;0.0172392726
774.5000000000;0.0169401988
775.0000000000;0.0165776350
775.5000000000;0.0164040644
776.0000000000;0.0163872074
776.5000000000;0.0163266640
777.0000000000;0.0161858238
777.5000000000;0.0160150733
778.0000000000;0.0159083717
778.5000000000;0.0158436559
779.0000000000;0.0157950409
779.5000000000;0.0158285238
780.0000000000;0.0158297960
780.5000000000;0.0156286545
781.0000000000;0.0154288383
781.5000000000;0.0153443152
782.0000000000;0.0152470395
782.5000000000;0.0151461456
783.0000000000;0.0150637077
783.5000000000;0.0148859443
784.0000000000;0.0146393105
784.5000000000;0.0144571494
785.0000000000;0.0143682463
785.5000000000;0.0143258730
786.0000000000;0.0142272655
786.5000000000;0.0140809808
787.0000000000;0.0139466226
787.5000000000;0.0138543276
788.0000000000;0.0138067054
788.5000000000;0.0137861334
789.0000000000;0.0137661351
789.5000000000;0.0137086967
790.0000000000;0.0135741252
790.5000000000;0.0134337805
791.0000000000;0.0133556472
791.5000000000;0.0132469758
792.0000000000;0.0131005235
792.5000000000;0.0129958354
793.0000000000;0.0129233478
793.5000000000;0.0129072899
794.0000000000;0.0130390078
794.5000000000;0.0131421993
795.0000000000;0.0130143911
795.5000000000;0.0127840843
796.0000000000;0.0125510972
796.5000000000;0.0123525141
797.0000000000;0.0123029472
797.5000000000;0.0123957582
798.0000000000;0.0124182524
798.5000000000;0.0123655545
799.0000000000;0.0123238778
799.5000000000;0.0122760385
800.0000000000;0.0122217685
800.5000000000;0.0121813314
801.0000000000;0.0121034216
801.5000000000;0.0119939791
802.0000000000;0.0119684674
802.5000000000;0.0119274016
803.0000000000;0.0117689921
803.5000000000;0.0117439330
804.0000000000;0.0118125351
804.5000000000;0.0116839409
805.0000000000;0.0115398765
805.5000000000;0.0115666902
806.0000000000;0.0116941221
806.5000000000;0.0118120322
807.0000000000;0.0118037332
807.5000000000;0.0115721449
808.0000000000;0.0113353245
808.5000000000;0.0114626084
809.0000000000;0.0115689291
809.5000000000;0.0113903508
810.0000000000;0.0112348944
810.5000000000;0.0112355016
811.0000000000;0.0113352016
811.5000000000;0.0113319876
812.0000000000;0.0112098781
812.5000000000;0.0111254873
813.0000000000;0.0111036878
813.5000000000;0.0111288661
814.0000000000;0.0111798719
814.5000000000;0.0111272736
815.0000000000;0.0109201493
815.5000000000;0.0108681507
816.0000000000;0.0109555293
816.5000000000;0.0108923633
817.0000000000;0.0107579669
817.5000000000;0.0106709627
818.0000000000;0.0106299696
818.5000000000;0.0105754938
819.0000000000;0.0104791308
819.5000000000;0.0104536507
820.0000000000;0.0105413133
820.5000000000;0.0106703322
821.0000000000;0.0106326723
821.5000000000;0.0104259988
822.0000000000;0.0103527876
822.5000000000;0.0103650801
823.0000000000;0.0103218360
823.5000000000;0.0103048915
824.0000000000;0.0103166867
824.5000000000;0.0102774166
825.0000000000;0.0101486808
825.5000000000;0.0100100925
826.0000000000;0.0100418404
826.5000000000;0.0101180524
827.0000000000;0.0100810956
827.5000000000;0.0100225043
828.0000000000;0.0099765249
828.5000000000;0.0099081900
829.0000000000;0.0097806426
829.5000000000;0.0096210260
830.0000000000;0.0095237792
830.5000000000;0.0095170550
831.0000000000;0.0095498506
831.5000000000;0.0094898455
832.0000000000;0.0094652725
832.5000000000;0.0096348403
833.0000000000;0.0096319923
833.5000000000;0.0093980599
834.0000000000;0.0093090897
834.5000000000;0.0095009198
835.0000000000;0.0097939027
835.5000000000;0.0096753901
836.0000000000;0.0093478849
836.5000000000;0.0092857657
837.0000000000;0.0093298471
837.5000000000;0.0093340520
838.0000000000;0.0092960969
838.5000000000;0.0092485007
839.0000000000;0.0092177382
839.5000000000;0.0092046112
840.0000000000;0.0091990251
840.5000000000;0.0091910670
841.0000000000;0.0091834525
841.5000000000;0.0091808187
842.0000000000;0.0091758072
842.5000000000;0.0091109052
843.0000000000;0.0090019908
843.5000000000;0.0089722537
844.0000000000;0.0089937346
844.5000000000;0.0089889476
845.0000000000;0.0089449314
845.5000000000;0.0088861631
846.0000000000;0.0088283876
846.5000000000;0.0086778635
847.0000000000;0.0085364226
847.5000000000;0.0086857798
848.0000000000;0.0087870955
848.5000000000;0.0086029246
849.0000000000;0.0085715670
849.5000000000;0.0087384349
850.0000000000;0.0088746445
850.5000000000;0.0088879857
851.0000000000;0.0088335117
851.5000000000;0.0088587450
852.0000000000;0.0089336149
852.5000000000;0.0090190312
853.0000000000;0.0091499202
853.5000000000;0.0092240553
854.0000000000;0.0091586942
854.5000000000;0.0091354251
855.0000000000;0.0091746291
855.5000000000;0.0091389101
856.0000000000;0.0090355901
856.5000000000;0.0089496197
857.0000000000;0.0089891255
857.5000000000;0.0090963533
858.0000000000;0.0091618076
858.5000000000;0.0091440035
859.0000000000;0.0091070263
859.5000000000;0.0091248527
860.0000000000;0.0090565244
860.5000000000;0.0089227017
861.0000000000;0.0089393007
861.5000000000;0.0090237334
862.0000000000;0.0090282485
862.5000000000;0.0089214928
863.0000000000;0.0088714650
863.5000000000;0.0090148197
864.0000000000;0.0090863798
864.5000000000;0.0090112109
865.0000000000;0.0089423144
865.5000000000;0.0089458041
866.0000000000;0.0090039177
866.5000000000;0.0090302275
867.0000000000;0.0090212794
867.5000000000;0.0090203872
868.0000000000;0.0090739559
868.5000000000;0.0091279875
869.0000000000;0.0090765301
869.5000000000;0.0089067146
870.0000000000;0.0087665310
870.5000000000;0.0088894488
871.0000000000;0.0090793697
871.5000000000;0.0091198739
872.0000000000;0.0090629598
872.5000000000;0.0090650953
873.0000000000;0.0091914833
873.5000000000;0.0091479057
874.0000000000;0.0089852707
874.5000000000;0.0090180608
875.0000000000;0.0090616550
875.5000000000;0.0089784591
876.0000000000;0.0088959523
876.5000000000;0.0088789100
877.0000000000;0.0088932300
877.5000000000;0.0087943068
878.0000000000;0.0086728437
878.5000000000;0.0087450007
879.0000000000;0.0090404442
879.5000000000;0.0092480723
880.0000000000;0.0089174416
880.5000000000;0.0085971085
881.0000000000;0.0086375382
881.5000000000;0.0085226381
882.0000000000;0.0083886841
882.5000000000;0.0085269716
883.0000000000;0.0086094812
883.5000000000;0.0085553583
884.0000000000;0.0085160714
884.5000000000;0.0084538516
885.0000000000;0.0083823483
885.5000000000;0.0084095737
886.0000000000;0.0084427074
886.5000000000;0.0083904061
887.0000000000;0.0083178962
887.5000000000;0.0082777264
888.0000000000;0.0082838573
888.5000000000;0.0082997847
889.0000000000;0.0083631817
889.5000000000;0.0085205864
890.0000000000;0.0085135708
890.5000000000;0.0082856249
891.0000000000;0.0081487652
891.5000000000;0.0081672855
892.0000000000;0.0082422756
892.5000000000;0.0082125468
893.0000000000;0.0080704903
893.5000000000;0.0079463953
894.0000000000;0.0080361115
894.5000000000;0.0081640100
895.0000000000;0.0079194568
895.5000000000;0.0076718875
896.0000000000;0.0076893028
896.5000000000;0.0077334223
897.0000000000;0.0077431230
897.5000000000;0.0077360319
898.0000000000;0.0076763975
898.5000000000;0.0076519824
899.0000000000;0.0077515705
899.5000000000;0.0077487752
900.0000000000;0.0075856959
900.5000000000;0.0074341721
901.0000000000;0.0073046447
901.5000000000;0.0072619282
902.0000000000;0.0074825645
902.5000000000;0.0075685368
903.0000000000;0.0072340965
903.5000000000;0.0071467110
904.0000000000;0.0073597548
904.5000000000;0.0074616810
905.0000000000;0.0074551892
905.5000000000;0.0073415698
906.0000000000;0.0070752548
906.5000000000;0.0069422484
907.0000000000;0.0070558297
907.5000000000;0.0070940834
908.0000000000;0.0070183915
908.5000000000;0.0069507724
909.0000000000;0.0069762561
909.5000000000;0.0069392202
910.0000000000;0.0066553936
910.5000000000;0.0064865262
911.0000000000;0.0065710777
911.5000000000;0.0066675977
912.0000000000;0.0065610493
912.5000000000;0.0063063875
913.0000000000;0.0063095950
913.5000000000;0.0064312657
914.0000000000;0.0063811913
914.5000000000;0.0062457100
915.0000000000;0.0062370831
915.5000000000;0.0064651081
916.0000000000;0.0065202988
916.5000000000;0.0063267443
917.0000000000;0.0062305955
917.5000000000;0.0062308949
918.0000000000;0.0061745960
918.5000000000;0.0059109982
919.0000000000;0.0056861723
919.5000000000;0.0056879520
920.0000000000;0.0055333888
920.5000000000;0.0053364104
921.0000000000;0.0054306043
921.5000000000;0.0054948106
922.0000000000;0.0054081250
922.5000000000;0.0053565796
923.0000000000;0.0052855946
923.5000000000;0.0051462525
924.0000000000;0.0050162128
924.5000000000;0.0049520116
925.0000000000;0.0049751722
925.5000000000;0.0050590173
926.0000000000;0.0050746836
926.5000000000;0.0049389447
927.0000000000;0.0048984992
927.5000000000;0.0049705934
928.0000000000;0.0049252599
928.5000000000;0.0046864934
929.0000000000;0.0044244030
929.5000000000;0.0044799284
930.0000000000;0.0045636105
930.5000000000;0.0043919296
931.0000000000;0.0042131324
931.5000000000;0.0042926525
932.0000000000;0.0045996206
932.5000000000;0.0044301641
933.0000000000;0.0040808516
933.5000000000;0.0043709110
934.0000000000;0.0044034203
934.5000000000;0.0039937831
935.0000000000;0.0040810411
935.5000000000;0.0041626673
936.0000000000;0.0038122472
936.5000000000;0.0036071502
937.0000000000;0.0035326546
937.5000000000;0.0033905085
938.0000000000;0.0033915979
938.5000000000;0.0035370947
939.0000000000;0.0035983087
939.5000000000;0.0032643483
940.0000000000;0.0027540368
940.5000000000;0.0026911644
941.0000000000;0.0029066515
941.5000000000;0.0030432434
942.0000000000;0.0028919314
942.5000000000;0.0026654920
943.0000000000;0.0025995558
943.5000000000;0.0026016044
944.0000000000;0.0025152406
944.5000000000;0.0022957490
945.0000000000;0.0022335527
945.5000000000;0.0022340277
946.0000000000;0.0019646001
946.5000000000;0.0016841522
947.0000000000;0.0016167454
947.5000000000;0.0017226186
948.0000000000;0.0017016225
948.5000000000;0.0015122679
949.0000000000;0.0016017419
949.5000000000;0.0017754434
950.0000000000;0.0016088198
950.5000000000;0.0010150376
951.0000000000;0.0007657727
951.5000000000;0.0014495011
952.0000000000;0.0013734639
952.5000000000;0.0004323455
953.0000000000;0.0000926886
953.5000000000;0.0000920710
954.0000000000;0.0000625516
954.5000000000;0.0000992122
955.0000000000;-0.0000854934
955.5000000000;-0.0004597991
956.0000000000;-0.0002965152
956.5000000000;-0.0002506604
957.0000000000;-0.0009339331
957.5000000000;-0.0010445768
958.0000000000;-0.0009005381
958.5000000000;-0.0016046950
959.0000000000;-0.0021463346
959.5000000000;-0.0018241554
960.0000000000;-0.0009306656
960.5000000000;-0.0008386547
961.0000000000;-0.0018484285
961.5000000000;-0.0025375066
962.0000000000;-0.0023362050
962.5000000000;-0.0017016778
963.0000000000;-0.0019873274
963.5000000000;-0.0024642085
964.0000000000;-0.0021833191
964.5000000000;-0.0024670777
965.0000000000;-0.0031310301
965.5000000000;-0.0031057447
966.0000000000;-0.0029194935
966.5000000000;-0.0029246290
967.0000000000;-0.0029468075
967.5000000000;-0.0027344301
968.0000000000;-0.0023875649
968.5000000000;-0.0023637316
969.0000000000;-0.0023251816
969.5000000000;-0.0020617833
970.0000000000;-0.0020754463
970.5000000000;-0.0021781120
971.0000000000;-0.0021351194
971.5000000000;-0.0024965024
972.0000000000;-0.0030329009
972.5000000000;-0.0032268236
973.0000000000;-0.0036070745
973.5000000000;-0.0038383189
974.0000000000;-0.0031199828
974.5000000000;-0.0029044221
975.0000000000;-0.0036326309
975.5000000000;-0.0039827451
976.0000000000;-0.0040223580
976.5000000000;-0.0041208379
977.0000000000;-0.0042282385
977.5000000000;-0.0041870736
978.0000000000;-0.0038461513
978.5000000000;-0.0032093357
979.0000000000;-0.0031267134
979.5000000000;-0.0041049886
980.0000000000;-0.0042606248
980.5000000000;-0.0036534807
981.0000000000;-0.0037653304
981.5000000000;-0.0039500105
982.0000000000;-0.0037690268
982.5000000000;-0.0035672828
983.0000000000;-0.0036310300
983.5000000000;-0.0040077255
984.0000000000;-0.0044317786
984.5000000000;-0.0045017954
985.0000000000;-0.0042700479
985.5000000000;-0.0045781480
986.0000000000;-0.0049139629
986.5000000000;-0.0046577537
987.0000000000;-0.0047340491
987.5000000000;-0.0049419077
988.0000000000;-0.0047178296
988.5000000000;-0.0053298771
989.0000000000;-0.0062305420
989.5000000000;-0.0056302184
990.0000000000;-0.0050360817
990.5000000000;-0.0052888794
991.0000000000;-0.0054889033
991.5000000000;-0.0052231625
992.0000000000;-0.0048249108
992.5000000000;-0.0052064727
993.0000000000;-0.0055206525
993.5000000000;-0.0052016401
994.0000000000;-0.0056369081
994.5000000000;-0.0062708133
995.0000000000;-0.0059340531
995.5000000000;-0.0051448150
996.0000000000;-0.0046769320
996.5000000000;-0.0049639079
997.0000000000;-0.0053912383
997.5000000000;-0.0058598858
998.0000000000;-0.0066125337
998.5000000000;-0.0064790966
999.0000000000;-0.0056692939
999.5000000000;-0.0059971702
1000.0000000000;-0.0064634616
1000.5000000000;-0.0061654723
1001.0000000000;-0.0058857831
1001.5000000000;-0.0064240871
1002.0000000000;-0.0074716224
1002.5000000000;-0.0070595364
1003.0000000000;-0.0065735020
1003.5000000000;-0.0076972065
1004.0000000000;-0.0080658095
1004.5000000000;-0.0071713035
1005.0000000000;-0.0063340049
1005.5000000000;-0.0069068810
1006.0000000000;-0.0078402599
1006.5000000000;-0.0071178605
1007.0000000000;-0.0072975294
1007.5000000000;-0.0085271802
1008.0000000000;-0.0079054944
1008.5000000000;-0.0072330274
1009.0000000000;-0.0075431392
1009.5000000000;-0.0070440592
1010.0000000000;-0.0065863361
1010.5000000000;-0.0072390167
1011.0000000000;-0.0083348006
1011.5000000000;-0.0083301878
1012.0000000000;-0.0070270160
1012.5000000000;-0.0075169601
1013.0000000000;-0.0090210987
1013.5000000000;-0.0090682069
1014.0000000000;-0.0081210146
1014.5000000000;-0.0073048621
1015.0000000000;-0.0075400691
1015.5000000000;-0.0085930564
1016.0000000000;-0.0095991222
1016.5000000000;-0.0096470881
1017.0000000000;-0.0091770776
1017.5000000000;-0.0090078926
1018.0000000000;-0.0095830811
1018.5000000000;-0.0092783645
1019.0000000000;-0.0079316683
1019.5000000000;-0.0080975071
