182.5000000000;10.6052942276
183.0000000000;9.7356920242
183.5000000000;9.4153280258
184.0000000000;9.4885587692
184.5000000000;9.2306165695
185.0000000000;7.9618954659
185.5000000000;6.2357864380
186.0000000000;5.1619706154
186.5000000000;3.7186799049
187.0000000000;1.9862490892
187.5000000000;1.2594172955
188.0000000000;0.9442172050
188.5000000000;0.6370680928
189.0000000000;0.4249633253
189.5000000000;0.3462133706
190.0000000000;0.3130170703
190.5000000000;0.2661960721
191.0000000000;0.2173797041
191.5000000000;0.1943497509
192.0000000000;0.1882358342
192.5000000000;0.1857577264
193.0000000000;0.1773952097
193.5000000000;0.1612215936
194.0000000000;0.1397114396
194.5000000000;0.1317258030
195.0000000000;0.1455397904
195.5000000000;0.1527670920
196.0000000000;0.1421113163
196.5000000000;0.1230490059
197.0000000000;0.1079969555
197.5000000000;0.1042306274
198.0000000000;0.1006776392
198.5000000000;0.0921439976
199.0000000000;0.0836543813
199.5000000000;0.0792096257
200.0000000000;0.0794279128
200.5000000000;0.0754619464
201.0000000000;0.0662303194
201.5000000000;0.0650137514
202.0000000000;0.0676476732
202.5000000000;0.0604033358
203.0000000000;0.0529535189
203.5000000000;0.0553497821
204.0000000000;0.0589108430
204.5000000000;0.0580967478
205.0000000000;0.0543354899
205.5000000000;0.0506166890
206.0000000000;0.0502706431
206.5000000000;0.0544596314
207.0000000000;0.0617113747
207.5000000000;0.0668848678
208.0000000000;0.0687230825
208.5000000000;0.0692496970
209.0000000000;0.0675854236
209.5000000000;0.0645180419
210.0000000000;0.0675722212
210.5000000000;0.0759156868
211.0000000000;0.0790388733
211.5000000000;0.0754396170
212.0000000000;0.0689436197
212.5000000000;0.0645337701
213.0000000000;0.0668812320
213.5000000000;0.0784286484
214.0000000000;0.0845414475
214.5000000000;0.0689037740
215.0000000000;0.0559853353
215.5000000000;0.0614227653
216.0000000000;0.0642484277
216.5000000000;0.0580886155
217.0000000000;0.0516704842
217.5000000000;0.0485465303
218.0000000000;0.0485025197
218.5000000000;0.0477610454
219.0000000000;0.0458332822
219.5000000000;0.0460199602
220.0000000000;0.0465009026
220.5000000000;0.0443123616
221.0000000000;0.0428717919
221.5000000000;0.0438533537
222.0000000000;0.0437081382
222.5000000000;0.0417673774
223.0000000000;0.0401685908
223.5000000000;0.0417884327
224.0000000000;0.0468818024
224.5000000000;0.0483582839
225.0000000000;0.0453292206
225.5000000000;0.0450652950
226.0000000000;0.0482901856
226.5000000000;0.0520484485
227.0000000000;0.0542550683
227.5000000000;0.0542131178
228.0000000000;0.0531672686
228.5000000000;0.0524752177
229.0000000000;0.0533263460
229.5000000000;0.0562505275
230.0000000000;0.0595011897
230.5000000000;0.0575451627
231.0000000000;0.0546074621
231.5000000000;0.0616343506
232.0000000000;0.0685263947
232.5000000000;0.0638320372
233.0000000000;0.0575819463
233.5000000000;0.0574745350
234.0000000000;0.0627483651
234.5000000000;0.0639976487
235.0000000000;0.0542224348
235.5000000000;0.0519662201
236.0000000000;0.0629076138
236.5000000000;0.0643373057
237.0000000000;0.0548848957
237.5000000000;0.0488149226
238.0000000000;0.0509995967
238.5000000000;0.0584721640
239.0000000000;0.0590048693
239.5000000000;0.0530613363
240.0000000000;0.0523350537
240.5000000000;0.0537288375
241.0000000000;0.0517958142
241.5000000000;0.0536816046
242.0000000000;0.0590051301
242.5000000000;0.0560730621
243.0000000000;0.0486319661
243.5000000000;0.0468287356
244.0000000000;0.0463884622
244.5000000000;0.0442607701
245.0000000000;0.0460987985
245.5000000000;0.0493308753
246.0000000000;0.0462895781
246.5000000000;0.0463197269
247.0000000000;0.0565972365
247.5000000000;0.0611946359
248.0000000000;0.0566392280
248.5000000000;0.0572358668
249.0000000000;0.0601847097
249.5000000000;0.0569856092
250.0000000000;0.0557972193
250.5000000000;0.0611402728
251.0000000000;0.0654079318
251.5000000000;0.0686997399
252.0000000000;0.0754404888
252.5000000000;0.0776749477
253.0000000000;0.0716384500
253.5000000000;0.0712542608
254.0000000000;0.0768739805
254.5000000000;0.0755531415
255.0000000000;0.0728850514
255.5000000000;0.0780190602
256.0000000000;0.0857457817
256.5000000000;0.0892452523
257.0000000000;0.0847486928
257.5000000000;0.0844776556
258.0000000000;0.0997949466
258.5000000000;0.1048052087
259.0000000000;0.0907932073
259.5000000000;0.0891136527
260.0000000000;0.0994871482
260.5000000000;0.1013489664
261.0000000000;0.1026027948
261.5000000000;0.1112663448
262.0000000000;0.1171441451
262.5000000000;0.1192635670
263.0000000000;0.1260928959
263.5000000000;0.1374992728
264.0000000000;0.1526805758
264.5000000000;0.1786224097
265.0000000000;0.2084975094
265.5000000000;0.2213300169
266.0000000000;0.2306726426
266.5000000000;0.2574852109
267.0000000000;0.2820468247
267.5000000000;0.2955228388
268.0000000000;0.3174758255
268.5000000000;0.3418855369
269.0000000000;0.3511117995
269.5000000000;0.3652701676
270.0000000000;0.3983563185
270.5000000000;0.4301286042
271.0000000000;0.4539259970
271.5000000000;0.4789166451
272.0000000000;0.5127552748
272.5000000000;0.5573690534
273.0000000000;0.6022658944
273.5000000000;0.6465128660
274.0000000000;0.7012500167
274.5000000000;0.7614144683
275.0000000000;0.8183014393
275.5000000000;0.8854267001
276.0000000000;0.9672356248
276.5000000000;1.0455247164
277.0000000000;1.1167255640
277.5000000000;1.1896767616
278.0000000000;1.2715313435
278.5000000000;1.3634276390
279.0000000000;1.4548842907
279.5000000000;1.5386214256
280.0000000000;1.6143051386
280.5000000000;1.6970517635
281.0000000000;1.7981857061
281.5000000000;1.8977192640
282.0000000000;1.9885987043
282.5000000000;2.0870065689
283.0000000000;2.1991071701
283.5000000000;2.3232681751
284.0000000000;2.4517319202
284.5000000000;2.5781159401
285.0000000000;2.7029664516
285.5000000000;2.8331701756
286.0000000000;2.9756431580
286.5000000000;3.1223559380
287.0000000000;3.2670865059
287.5000000000;3.4168953896
288.0000000000;3.5608141422
288.5000000000;3.6758632660
289.0000000000;3.7908859253
289.5000000000;3.9309763908
290.0000000000;4.0564742088
290.5000000000;4.1546511650
291.0000000000;4.2522292137
291.5000000000;4.3553595543
292.0000000000;4.4558339119
292.5000000000;4.5360860825
293.0000000000;4.5954318047
293.5000000000;4.6576271057
294.0000000000;4.7293009758
294.5000000000;4.8018794060
295.0000000000;4.8551034927
295.5000000000;4.8859066963
296.0000000000;4.9240341187
296.5000000000;4.9683022499
297.0000000000;4.9958248138
297.5000000000;5.0151124001
298.0000000000;5.0375223160
298.5000000000;5.0559768677
299.0000000000;5.0685286522
299.5000000000;5.0787272453
300.0000000000;5.0747609138
300.5000000000;5.0503592491
301.0000000000;5.0346193314
301.5000000000;5.0308675766
302.0000000000;5.0057106018
302.5000000000;4.9611368179
303.0000000000;4.9195961952
303.5000000000;4.9008269310
304.0000000000;4.8943915367
304.5000000000;4.8485774994
305.0000000000;4.7835330963
305.5000000000;4.7541880608
306.0000000000;4.7238826752
306.5000000000;4.6600441933
307.0000000000;4.5941367149
307.5000000000;4.5417699814
308.0000000000;4.4976973534
308.5000000000;4.4561214447
309.0000000000;4.4096808434
309.5000000000;4.3478989601
310.0000000000;4.2823076248
310.5000000000;4.2435626984
311.0000000000;4.2056665421
311.5000000000;4.1338930130
312.0000000000;4.0653233528
312.5000000000;4.0197911263
313.0000000000;3.9711456299
313.5000000000;3.9138336182
314.0000000000;3.8570291996
314.5000000000;3.8048467636
315.0000000000;3.7554683685
315.5000000000;3.6993687153
316.0000000000;3.6417493820
316.5000000000;3.5980551243
317.0000000000;3.5665473938
317.5000000000;3.5364627838
318.0000000000;3.4918630123
318.5000000000;3.4388468266
319.0000000000;3.4029343128
319.5000000000;3.3747086525
320.0000000000;3.3367958069
320.5000000000;3.2983191013
321.0000000000;3.2654001713
321.5000000000;3.2340655327
322.0000000000;3.2046849728
322.5000000000;3.1790390015
323.0000000000;3.1531765461
323.5000000000;3.1251983643
324.0000000000;3.0983908176
324.5000000000;3.0723462105
325.0000000000;3.0453977585
325.5000000000;3.0237615108
326.0000000000;3.0090527534
326.5000000000;2.9895961285
327.0000000000;2.9642472267
327.5000000000;2.9415440559
328.0000000000;2.9233272076
328.5000000000;2.9070265293
329.0000000000;2.8858697414
329.5000000000;2.8582406044
330.0000000000;2.8304200172
330.5000000000;2.8189821243
331.0000000000;2.8328878880
331.5000000000;2.8447413445
332.0000000000;2.8342115879
332.5000000000;2.8015348911
333.0000000000;2.7683486938
333.5000000000;2.7565736771
334.0000000000;2.7455284595
334.5000000000;2.7236697674
335.0000000000;2.7082393169
335.5000000000;2.6995935440
336.0000000000;2.6869711876
336.5000000000;2.6710543633
337.0000000000;2.6520290375
337.5000000000;2.6236858368
338.0000000000;2.5983285904
338.5000000000;2.5969889164
339.0000000000;2.5968797207
339.5000000000;2.5748789310
340.0000000000;2.5439202785
340.5000000000;2.5199067593
341.0000000000;2.5125725269
341.5000000000;2.5035545826
342.0000000000;2.4733157158
342.5000000000;2.4335718155
343.0000000000;2.4018208981
343.5000000000;2.3913514614
344.0000000000;2.3802335262
344.5000000000;2.3449335098
345.0000000000;2.3195888996
345.5000000000;2.3136651516
346.0000000000;2.2872643471
346.5000000000;2.2448945045
347.0000000000;2.2137594223
347.5000000000;2.1876728535
348.0000000000;2.1557943821
348.5000000000;2.1154439449
349.0000000000;2.0793237686
349.5000000000;2.0627548695
350.0000000000;2.0357966423
350.5000000000;1.9864219427
351.0000000000;1.9668879509
351.5000000000;1.9688621759
352.0000000000;1.9339379072
352.5000000000;1.8792390823
353.0000000000;1.8399742842
353.5000000000;1.8203517199
354.0000000000;1.8050025702
354.5000000000;1.7671825886
355.0000000000;1.7158029079
355.5000000000;1.6715756655
356.0000000000;1.6391040087
356.5000000000;1.6133036613
357.0000000000;1.5820086002
357.5000000000;1.5464196205
358.0000000000;1.5154147148
358.5000000000;1.4983537197
359.0000000000;1.4912202358
359.5000000000;1.4667950869
360.0000000000;1.4116196632
360.5000000000;1.3467537165
361.0000000000;1.3074297905
361.5000000000;1.2894184589
362.0000000000;1.2653995752
362.5000000000;1.2333890200
363.0000000000;1.2092379332
363.5000000000;1.1831099987
364.0000000000;1.1480772495
364.5000000000;1.1257218122
365.0000000000;1.1063423157
365.5000000000;1.0566116571
366.0000000000;1.0115622282
366.5000000000;1.0046916008
367.0000000000;0.9863936305
367.5000000000;0.9442866445
368.0000000000;0.9176206589
368.5000000000;0.9049910903
369.0000000000;0.8881909847
369.5000000000;0.8646721840
370.0000000000;0.8394148946
370.5000000000;0.8223527074
371.0000000000;0.8111091852
371.5000000000;0.7971732020
372.0000000000;0.7783194184
372.5000000000;0.7568182349
373.0000000000;0.7394054532
373.5000000000;0.7273032665
374.0000000000;0.7173289657
374.5000000000;0.7050867081
375.0000000000;0.6922388673
375.5000000000;0.6905429959
376.0000000000;0.6870037913
376.5000000000;0.6569972038
377.0000000000;0.6261767149
377.5000000000;0.6180511713
378.0000000000;0.6134987473
378.5000000000;0.6058652401
379.0000000000;0.6022704840
379.5000000000;0.5904949307
380.0000000000;0.5652420521
380.5000000000;0.5584437847
381.0000000000;0.5687456727
381.5000000000;0.5569503307
382.0000000000;0.5302793384
382.5000000000;0.5160717964
383.0000000000;0.5286875963
383.5000000000;0.5468855500
384.0000000000;0.5165763497
384.5000000000;0.4788278043
385.0000000000;0.4938663840
385.5000000000;0.5080577135
386.0000000000;0.4958413839
386.5000000000;0.4995704293
387.0000000000;0.5041239262
387.5000000000;0.4758159220
388.0000000000;0.4569046199
388.5000000000;0.4712226093
389.0000000000;0.4861200154
389.5000000000;0.4893515408
390.0000000000;0.4880404472
390.5000000000;0.4960458577
391.0000000000;0.5133884549
391.5000000000;0.5132760406
392.0000000000;0.4992732108
392.5000000000;0.4960853457
393.0000000000;0.5001656413
393.5000000000;0.5027370453
394.0000000000;0.5030484796
394.5000000000;0.5002463460
395.0000000000;0.4955450594
395.5000000000;0.5092990398
396.0000000000;0.5462536216
396.5000000000;0.5553184748
397.0000000000;0.5372093320
397.5000000000;0.5441731215
398.0000000000;0.5563651323
398.5000000000;0.5431610346
399.0000000000;0.5292776823
399.5000000000;0.5340371728
400.0000000000;0.5587458611
400.5000000000;0.5827034712
401.0000000000;0.5857404470
401.5000000000;0.5867709517
402.0000000000;0.5960077047
402.5000000000;0.6024669409
403.0000000000;0.6010856628
403.5000000000;0.5979980826
404.0000000000;0.6233351231
404.5000000000;0.6703264117
405.0000000000;0.6796605587
405.5000000000;0.6636953950
406.0000000000;0.6694144011
406.5000000000;0.7018550634
407.0000000000;0.7452448010
407.5000000000;0.7666683793
408.0000000000;0.7809597850
408.5000000000;0.8240333796
409.0000000000;0.8560401797
409.5000000000;0.8544035554
410.0000000000;0.8630768657
410.5000000000;0.8964436650
411.0000000000;0.9402471781
411.5000000000;0.9782619476
412.0000000000;1.0046788454
412.5000000000;1.0361896753
413.0000000000;1.0747299194
413.5000000000;1.1132777929
414.0000000000;1.1625354290
414.5000000000;1.2254321575
415.0000000000;1.2753623724
415.5000000000;1.3105189800
416.0000000000;1.3568038940
416.5000000000;1.4173760414
417.0000000000;1.4823553562
417.5000000000;1.5410665274
418.0000000000;1.5982658863
418.5000000000;1.6714981794
419.0000000000;1.7523361444
419.5000000000;1.8239169121
420.0000000000;1.8933472633
420.5000000000;1.9674013853
421.0000000000;2.0446720123
421.5000000000;2.1300797462
422.0000000000;2.2282617092
422.5000000000;2.3208863735
423.0000000000;2.4044337273
423.5000000000;2.5025289059
424.0000000000;2.6167762280
424.5000000000;2.7425704002
425.0000000000;2.8758790493
425.5000000000;3.0025892258
426.0000000000;3.1225452423
426.5000000000;3.2464454174
427.0000000000;3.3732879162
427.5000000000;3.5089213848
428.0000000000;3.6622731686
428.5000000000;3.8169579506
429.0000000000;3.9783878326
429.5000000000;4.1530675888
430.0000000000;4.3160114288
430.5000000000;4.4706015587
431.0000000000;4.6528201103
431.5000000000;4.8550686836
432.0000000000;5.0430078506
432.5000000000;5.2313799858
433.0000000000;5.4389190674
433.5000000000;5.6514463425
434.0000000000;5.8488378525
434.5000000000;6.0507202148
435.0000000000;6.2798128128
435.5000000000;6.5157599449
436.0000000000;6.7443304062
436.5000000000;6.9776182175
437.0000000000;7.2286357880
437.5000000000;7.4833784103
438.0000000000;7.7276673317
438.5000000000;7.9729833603
439.0000000000;8.2321815491
439.5000000000;8.5113935471
440.0000000000;8.7897310257
440.5000000000;9.0561952591
441.0000000000;9.3374919891
441.5000000000;9.6167888641
442.0000000000;9.8951063156
442.5000000000;10.1974973679
443.0000000000;10.5106468201
443.5000000000;10.8200693130
444.0000000000;11.1239166260
444.5000000000;11.4308595657
445.0000000000;11.7450733185
445.5000000000;12.0666217804
446.0000000000;12.3887310028
446.5000000000;12.7131986618
447.0000000000;13.0592832565
447.5000000000;13.4132080078
448.0000000000;13.7471618652
448.5000000000;14.0814666748
449.0000000000;14.4276342392
449.5000000000;14.7751741409
450.0000000000;15.1272163391
450.5000000000;15.4922075272
451.0000000000;15.8728942871
451.5000000000;16.2573757172
452.0000000000;16.6233577728
452.5000000000;16.9793758392
453.0000000000;17.3474884033
453.5000000000;17.7266979218
454.0000000000;18.1071014404
454.5000000000;18.4788341522
455.0000000000;18.8549728394
455.5000000000;19.2524108887
456.0000000000;19.6488895416
456.5000000000;20.0333061218
457.0000000000;20.4186515808
457.5000000000;20.8134460449
458.0000000000;21.2184562683
458.5000000000;21.6114635468
459.0000000000;21.9974060059
459.5000000000;22.3953933716
460.0000000000;22.8154258728
460.5000000000;23.2656307220
461.0000000000;23.7000617981
461.5000000000;24.0876121521
462.0000000000;24.4828186035
462.5000000000;24.9033432007
463.0000000000;25.3059272766
463.5000000000;25.6878948212
464.0000000000;26.0867176056
464.5000000000;26.5062618256
465.0000000000;26.9310455322
465.5000000000;27.3607349396
466.0000000000;27.7845611572
466.5000000000;28.1983337402
467.0000000000;28.6340026855
467.5000000000;29.0810165405
468.0000000000;29.5014038086
468.5000000000;29.9055194855
469.0000000000;30.3311214447
469.5000000000;30.7953968048
470.0000000000;31.2549991608
470.5000000000;31.6558094025
471.0000000000;32.0516471863
471.5000000000;32.4875717163
472.0000000000;32.9253120422
472.5000000000;33.3402824402
473.0000000000;33.7293853760
473.5000000000;34.1273574829
474.0000000000;34.5693397522
474.5000000000;35.0174636841
475.0000000000;35.4408226013
475.5000000000;35.8521385193
476.0000000000;36.2561645508
476.5000000000;36.6584625244
477.0000000000;37.0738677979
477.5000000000;37.5000724792
478.0000000000;37.9143714905
478.5000000000;38.3143234253
479.0000000000;38.7194328308
479.5000000000;39.1232337952
480.0000000000;39.5194740295
480.5000000000;39.9295387268
481.0000000000;40.3360900879
481.5000000000;40.7197074890
482.0000000000;41.1017456055
482.5000000000;41.4908943176
483.0000000000;41.8816337585
483.5000000000;42.2776985168
484.0000000000;42.6534042358
484.5000000000;42.9516639709
485.0000000000;43.3401527405
485.5000000000;43.9007759094
486.0000000000;44.2130889893
486.5000000000;44.2773628235
487.0000000000;44.5806617737
487.5000000000;45.1848258972
488.0000000000;45.6297760010
488.5000000000;45.9430427551
489.0000000000;46.3065719604
489.5000000000;46.6728973389
490.0000000000;47.0085220337
490.5000000000;47.3409614563
491.0000000000;47.6875572205
491.5000000000;48.0468521118
492.0000000000;48.4018135071
492.5000000000;48.7322959900
493.0000000000;49.0323333740
493.5000000000;49.3440856934
494.0000000000;49.7003669739
494.5000000000;50.0515899658
495.0000000000;50.3782348633
495.5000000000;50.7073631287
496.0000000000;51.0326042175
496.5000000000;51.3358573914
497.0000000000;51.6207847595
497.5000000000;51.9144630432
498.0000000000;52.2289505005
498.5000000000;52.5244178772
499.0000000000;52.7881698608
499.5000000000;53.0727424622
500.0000000000;53.3795280457
500.5000000000;53.6580276489
501.0000000000;53.9163475037
501.5000000000;54.1794319153
502.0000000000;54.4650192261
502.5000000000;54.7650337219
503.0000000000;55.0395927429
503.5000000000;55.3022842407
504.0000000000;55.5784034729
504.5000000000;55.8540649414
505.0000000000;56.1160774231
505.5000000000;56.3640747070
506.0000000000;56.6192741394
506.5000000000;56.8910675049
507.0000000000;57.1482734680
507.5000000000;57.3861160278
508.0000000000;57.6187210083
508.5000000000;57.8593444824
509.0000000000;58.1181869507
509.5000000000;58.3744392395
510.0000000000;58.6076812744
510.5000000000;58.8173789978
511.0000000000;59.0387268066
511.5000000000;59.2857780457
512.0000000000;59.5183753967
512.5000000000;59.7323265076
513.0000000000;59.9514350891
513.5000000000;60.1980094910
514.0000000000;60.4637565613
514.5000000000;60.6843833923
515.0000000000;60.8715553284
515.5000000000;61.0843620300
516.0000000000;61.3077621460
516.5000000000;61.5208854675
517.0000000000;61.7265434265
517.5000000000;61.9285163879
518.0000000000;62.1315002441
518.5000000000;62.3397521973
519.0000000000;62.5498733521
519.5000000000;62.7490577698
520.0000000000;62.9465408325
520.5000000000;63.1597442627
521.0000000000;63.3665504456
521.5000000000;63.5546875000
522.0000000000;63.7524299622
522.5000000000;63.9574928284
523.0000000000;64.1483688354
523.5000000000;64.3451004028
524.0000000000;64.5535583496
524.5000000000;64.7375793457
525.0000000000;64.9001388550
525.5000000000;65.0682449341
526.0000000000;65.2466659546
526.5000000000;65.4295806885
527.0000000000;65.6061325073
527.5000000000;65.7812881470
528.0000000000;65.9643478394
528.5000000000;66.1438064575
529.0000000000;66.3137130737
529.5000000000;66.4850540161
530.0000000000;66.6569061279
530.5000000000;66.8233261108
531.0000000000;66.9921188354
531.5000000000;67.1638870239
532.0000000000;67.3271484375
532.5000000000;67.4873504639
533.0000000000;67.6530303955
533.5000000000;67.8131027222
534.0000000000;67.9653320313
534.5000000000;68.1211090088
535.0000000000;68.2814865112
535.5000000000;68.4417266846
536.0000000000;68.6001968384
536.5000000000;68.7587509155
537.0000000000;68.9190750122
537.5000000000;69.0716934204
538.0000000000;69.2108078003
538.5000000000;69.3558578491
539.0000000000;69.5100936890
539.5000000000;69.6553497314
540.0000000000;69.8036880493
540.5000000000;69.9682006836
541.0000000000;70.1258697510
541.5000000000;70.2670364380
542.0000000000;70.4022445679
542.5000000000;70.5432357788
543.0000000000;70.6973648071
543.5000000000;70.8494033813
544.0000000000;70.9955673218
544.5000000000;71.1485671997
545.0000000000;71.2928390503
545.5000000000;71.4195480347
546.0000000000;71.5626983643
546.5000000000;71.7223663330
547.0000000000;71.8656768799
547.5000000000;71.9854736328
548.0000000000;72.0945892334
548.5000000000;72.2262039185
549.0000000000;72.3833465576
549.5000000000;72.5392913818
550.0000000000;72.6817016602
550.5000000000;72.8147354126
551.0000000000;72.9581756592
551.5000000000;73.1028900146
552.0000000000;73.2238998413
552.5000000000;73.3494567871
553.0000000000;73.4957809448
553.5000000000;73.6225967407
554.0000000000;73.7320709229
554.5000000000;73.8580932617
555.0000000000;73.9952011108
555.5000000000;74.1280517578
556.0000000000;74.2522659302
556.5000000000;74.3756179810
557.0000000000;74.5071029663
557.5000000000;74.6370773315
558.0000000000;74.7626266479
558.5000000000;74.8981628418
559.0000000000;75.0389709473
559.5000000000;75.1686248779
560.0000000000;75.2860260010
560.5000000000;75.3997421265
561.0000000000;75.5229110718
561.5000000000;75.6513137817
562.0000000000;75.7751312256
562.5000000000;75.9016494751
563.0000000000;76.0340118408
563.5000000000;76.1658782959
564.0000000000;76.2915420532
564.5000000000;76.4095382690
565.0000000000;76.5307846069
565.5000000000;76.6575469971
566.0000000000;76.7801971436
566.5000000000;76.9046173096
567.0000000000;77.0345840454
567.5000000000;77.1555786133
568.0000000000;77.2530975342
568.5000000000;77.3088912964
569.0000000000;77.3209991455
569.5000000000;77.3304977417
570.0000000000;77.4502868652
570.5000000000;77.6353836060
571.0000000000;77.6812515259
571.5000000000;77.5511245728
572.0000000000;77.4470596313
572.5000000000;77.6631393433
573.0000000000;78.0590515137
573.5000000000;78.2878265381
574.0000000000;78.3297576904
574.5000000000;78.2910995483
575.0000000000;78.3275909424
575.5000000000;78.4528732300
576.0000000000;78.5962829590
576.5000000000;78.8311691284
577.0000000000;79.1016921997
577.5000000000;79.1081542969
578.0000000000;79.0434265137
578.5000000000;79.2909622192
579.0000000000;79.7175979614
579.5000000000;80.0301589966
580.0000000000;80.0032958984
580.5000000000;79.7976837158
581.0000000000;79.6839752197
581.5000000000;79.5434265137
582.0000000000;79.4034652710
582.5000000000;79.5008468628
583.0000000000;79.7617492676
583.5000000000;79.9429855347
584.0000000000;79.9866485596
584.5000000000;79.9807434082
585.0000000000;80.0677642822
585.5000000000;80.2113342285
586.0000000000;80.3331832886
586.5000000000;80.4585571289
587.0000000000;80.5869598389
587.5000000000;80.6799468994
588.0000000000;80.7455062866
588.5000000000;80.8184127808
589.0000000000;80.9418029785
589.5000000000;81.1140213013
590.0000000000;81.2820358276
590.5000000000;81.4184188843
591.0000000000;81.5224990845
591.5000000000;81.6088333130
592.0000000000;81.7109069824
592.5000000000;81.8480148315
593.0000000000;81.9509887695
593.5000000000;82.0208511353
594.0000000000;82.1723709106
594.5000000000;82.3532562256
595.0000000000;82.4506301880
595.5000000000;82.5497665405
596.0000000000;82.7074737549
596.5000000000;82.8646011353
597.0000000000;82.9976348877
597.5000000000;83.1214141846
598.0000000000;83.2585525513
598.5000000000;83.4090499878
599.0000000000;83.5409164429
599.5000000000;83.6620025635
600.0000000000;83.7857742310
600.5000000000;83.8743820190
601.0000000000;83.9316635132
601.5000000000;84.0116958618
602.0000000000;84.1352233887
602.5000000000;84.2840728760
603.0000000000;84.3942718506
603.5000000000;84.4617691040
604.0000000000;84.5365219116
604.5000000000;84.6444168091
605.0000000000;84.7686309814
605.5000000000;84.8584442139
606.0000000000;84.9200363159
606.5000000000;84.9844436646
607.0000000000;85.0422821045
607.5000000000;85.0926971436
608.0000000000;85.1571044922
608.5000000000;85.2294464111
609.0000000000;85.2879562378
609.5000000000;85.3132019043
610.0000000000;85.3213806152
610.5000000000;85.3662261963
611.0000000000;85.4270706177
611.5000000000;85.4642868042
612.0000000000;85.5004348755
612.5000000000;85.5421905518
613.0000000000;85.5696105957
613.5000000000;85.5984725952
614.0000000000;85.6443710327
614.5000000000;85.6847915649
615.0000000000;85.7161254883
615.5000000000;85.7534484863
616.0000000000;85.7983856201
616.5000000000;85.8544921875
617.0000000000;85.9283905029
617.5000000000;85.9888458252
618.0000000000;86.0014648438
618.5000000000;86.0149841309
619.0000000000;86.0603561401
619.5000000000;86.1034393311
620.0000000000;86.1365890503
620.5000000000;86.1795654297
621.0000000000;86.2700653076
621.5000000000;86.3805160522
622.0000000000;86.4111862183
622.5000000000;86.4167022705
623.0000000000;86.4849929810
623.5000000000;86.5697250366
624.0000000000;86.6455917358
624.5000000000;86.7346191406
625.0000000000;86.8424911499
625.5000000000;86.9544067383
626.0000000000;87.0301437378
626.5000000000;87.0784835815
627.0000000000;87.1440048218
627.5000000000;87.2085342407
628.0000000000;87.2633361816
628.5000000000;87.3529205322
629.0000000000;87.4614181519
629.5000000000;87.5428390503
630.0000000000;87.6241836548
630.5000000000;87.7259292603
631.0000000000;87.8272857666
631.5000000000;87.9140701294
632.0000000000;87.9833297729
632.5000000000;88.0443344116
633.0000000000;88.1083221436
633.5000000000;88.1834106445
634.0000000000;88.2591629028
634.5000000000;88.3255386353
635.0000000000;88.3968200684
635.5000000000;88.4658813477
636.0000000000;88.5081939697
636.5000000000;88.5439147949
637.0000000000;88.5957183838
637.5000000000;88.6548461914
638.0000000000;88.7105484009
638.5000000000;88.7597045898
639.0000000000;88.8191680908
639.5000000000;88.8875198364
640.0000000000;88.9281768799
640.5000000000;88.9581451416
641.0000000000;89.0143356323
641.5000000000;89.0702896118
642.0000000000;89.1068649292
642.5000000000;89.1349563599
643.0000000000;89.1586837769
643.5000000000;89.1801376343
644.0000000000;89.2084655762
644.5000000000;89.2435150146
645.0000000000;89.2753982544
645.5000000000;89.3083801270
646.0000000000;89.3445892334
646.5000000000;89.3685607910
647.0000000000;89.3847732544
647.5000000000;89.4102172852
648.0000000000;89.4309768677
648.5000000000;89.4419021606
649.0000000000;89.4677124023
649.5000000000;89.5075454712
650.0000000000;89.5439910889
650.5000000000;89.5691833496
651.0000000000;89.5853881836
651.5000000000;89.6050338745
652.0000000000;89.6347961426
652.5000000000;89.6701507568
653.0000000000;89.6864318848
653.5000000000;89.7153854370
654.0000000000;89.7987823486
654.5000000000;89.6534423828
655.0000000000;89.3612136841
655.5000000000;89.8231506348
656.0000000000;89.9257583618
656.5000000000;89.0978851318
657.0000000000;88.1257858276
657.5000000000;89.3233718872
658.0000000000;90.2629013062
658.5000000000;90.1027832031
659.0000000000;90.1655044556
659.5000000000;90.3260040283
660.0000000000;90.3741989136
660.5000000000;90.4297561646
661.0000000000;90.4958114624
661.5000000000;90.5383758545
662.0000000000;90.6087112427
662.5000000000;90.6996841431
663.0000000000;90.7480468750
663.5000000000;90.7900314331
664.0000000000;90.8673477173
664.5000000000;90.9549102783
665.0000000000;91.0318222046
665.5000000000;91.0950088501
666.0000000000;91.1726837158
666.5000000000;91.2707748413
667.0000000000;91.3501663208
667.5000000000;91.4079513550
668.0000000000;91.4627761841
668.5000000000;91.5227508545
669.0000000000;91.5833358765
669.5000000000;91.6319427490
670.0000000000;91.6828536987
670.5000000000;91.7472534180
671.0000000000;91.8011474609
671.5000000000;91.8418731689
672.0000000000;91.8874969482
672.5000000000;91.9375915527
673.0000000000;91.9878845215
673.5000000000;92.0384979248
674.0000000000;92.0909271240
674.5000000000;92.1465530396
675.0000000000;92.2033309937
675.5000000000;92.2538375854
676.0000000000;92.2880630493
676.5000000000;92.3217391968
677.0000000000;92.3723907471
677.5000000000;92.4266891479
678.0000000000;92.4674987793
678.5000000000;92.4861373901
679.0000000000;92.5111083984
679.5000000000;92.5583877563
680.0000000000;92.5951385498
680.5000000000;92.6234893799
681.0000000000;92.6649322510
681.5000000000;92.6953964233
682.0000000000;92.7098770142
682.5000000000;92.7442398071
683.0000000000;92.7837142944
683.5000000000;92.7986602783
684.0000000000;92.8067398071
684.5000000000;92.8096847534
685.0000000000;92.7901000977
685.5000000000;92.7849807739
686.0000000000;92.8256454468
686.5000000000;92.8819427490
687.0000000000;92.9185256958
687.5000000000;92.9176483154
688.0000000000;92.9263076782
688.5000000000;92.9634933472
689.0000000000;92.9779891968
689.5000000000;92.9644317627
690.0000000000;92.9481201172
690.5000000000;92.9506072998
691.0000000000;92.9659347534
691.5000000000;92.9640197754
692.0000000000;92.9644317627
692.5000000000;92.9871292114
693.0000000000;93.0033035278
693.5000000000;93.0133285522
694.0000000000;93.0414199829
694.5000000000;93.0759506226
695.0000000000;93.1044769287
695.5000000000;93.1325759888
696.0000000000;93.1588058472
696.5000000000;93.1765747070
697.0000000000;93.1834106445
697.5000000000;93.1953125000
698.0000000000;93.2424011230
698.5000000000;93.3038024902
699.0000000000;93.3496932983
699.5000000000;93.3880462646
700.0000000000;93.4247970581
700.5000000000;93.4604797363
701.0000000000;93.5046310425
701.5000000000;93.5564270020
702.0000000000;93.5942687988
702.5000000000;93.6218185425
703.0000000000;93.6573638916
703.5000000000;93.7082138062
704.0000000000;93.7682647705
704.5000000000;93.8211822510
705.0000000000;93.8688049316
705.5000000000;93.9123687744
706.0000000000;93.9331436157
706.5000000000;93.9449768066
707.0000000000;93.9829864502
707.5000000000;94.0377349854
708.0000000000;94.0973587036
708.5000000000;94.1664962769
709.0000000000;94.2376556396
709.5000000000;94.2993392944
710.0000000000;94.3506393433
710.5000000000;94.3948669434
711.0000000000;94.4391860962
711.5000000000;94.4905624390
712.0000000000;94.5442504883
712.5000000000;94.5738906860
713.0000000000;94.5919342041
713.5000000000;94.6343917847
714.0000000000;94.6896591187
714.5000000000;94.7417755127
715.0000000000;94.7889404297
715.5000000000;94.8365478516
716.0000000000;94.8928680420
716.5000000000;94.9599914551
717.0000000000;95.0283889771
717.5000000000;95.0821914673
718.0000000000;95.1313323975
718.5000000000;95.1861343384
719.0000000000;95.2368545532
719.5000000000;95.2904891968
720.0000000000;95.3604812622
720.5000000000;95.4226837158
721.0000000000;95.4667968750
721.5000000000;95.5151824951
722.0000000000;95.5682067871
722.5000000000;95.6173324585
723.0000000000;95.6644973755
723.5000000000;95.7068786621
724.0000000000;95.7395172119
724.5000000000;95.7754211426
725.0000000000;95.8161315918
725.5000000000;95.8348770142
726.0000000000;95.8484954834
726.5000000000;95.8904800415
727.0000000000;95.9398880005
727.5000000000;95.9805297852
728.0000000000;96.0194015503
728.5000000000;96.0601043701
729.0000000000;96.1021804810
729.5000000000;96.1410827637
730.0000000000;96.1672058105
730.5000000000;96.1715698242
731.0000000000;96.1702651978
731.5000000000;96.1831741333
732.0000000000;96.2219390869
732.5000000000;96.2754821777
733.0000000000;96.3193359375
733.5000000000;96.3319702148
734.0000000000;96.3207702637
734.5000000000;96.3180694580
735.0000000000;96.3197937012
735.5000000000;96.3228378296
736.0000000000;96.3535919189
736.5000000000;96.4000167847
737.0000000000;96.4285049438
737.5000000000;96.4497756958
738.0000000000;96.4789352417
738.5000000000;96.5160903931
739.0000000000;96.5306015015
739.5000000000;96.5052566528
740.0000000000;96.4899215698
740.5000000000;96.5047302246
741.0000000000;96.5339736938
741.5000000000;96.5621337891
742.0000000000;96.5803680420
742.5000000000;96.5921096802
743.0000000000;96.6033477783
743.5000000000;96.6171112061
744.0000000000;96.6257095337
744.5000000000;96.6323242188
745.0000000000;96.6499481201
745.5000000000;96.6598205566
746.0000000000;96.6525573730
746.5000000000;96.6628265381
747.0000000000;96.6803588867
747.5000000000;96.6743087769
748.0000000000;96.6802368164
748.5000000000;96.7107162476
749.0000000000;96.7292175293
749.5000000000;96.7434616089
750.0000000000;96.7654495239
750.5000000000;96.7620010376
751.0000000000;96.7547683716
751.5000000000;96.7991027832
752.0000000000;96.8417816162
752.5000000000;96.8401031494
753.0000000000;96.8249206543
753.5000000000;96.8153381348
754.0000000000;96.8219909668
754.5000000000;96.8639450073
755.0000000000;96.9239120483
755.5000000000;96.9505615234
756.0000000000;96.9359436035
756.5000000000;96.9018554688
757.0000000000;96.8899688721
757.5000000000;96.9059753418
758.0000000000;96.9308242798
758.5000000000;96.9499740601
759.0000000000;96.9724273682
759.5000000000;97.0271453857
760.0000000000;97.0917205811
760.5000000000;97.1349105835
761.0000000000;97.1562881470
761.5000000000;97.1919174194
762.0000000000;97.2789154053
762.5000000000;97.3424453735
763.0000000000;97.3462448120
763.5000000000;97.3511734009
764.0000000000;97.3797607422
764.5000000000;97.4236297607
765.0000000000;97.4567947388
765.5000000000;97.4953155518
766.0000000000;97.5785522461
766.5000000000;97.6654434204
767.0000000000;97.7152786255
767.5000000000;97.7300338745
768.0000000000;97.7196578979
768.5000000000;97.7011642456
769.0000000000;97.7028503418
769.5000000000;97.7482299805
770.0000000000;97.8448638916
770.5000000000;97.9383850098
771.0000000000;97.9874038696
771.5000000000;98.0214462280
772.0000000000;98.0735397339
772.5000000000;98.1524505615
773.0000000000;98.2028656006
773.5000000000;98.2197341919
774.0000000000;98.2588882446
774.5000000000;98.3209762573
775.0000000000;98.3867187500
775.5000000000;98.4428939819
776.0000000000;98.4702606201
776.5000000000;98.4639358521
777.0000000000;98.4861602783
777.5000000000;98.5474548340
778.0000000000;98.5838699341
778.5000000000;98.5945434570
779.0000000000;98.6017150879
779.5000000000;98.6132354736
780.0000000000;98.6362991333
780.5000000000;98.6735000610
781.0000000000;98.7042541504
781.5000000000;98.7252578735
782.0000000000;98.7601699829
782.5000000000;98.7873687744
783.0000000000;98.7924804688
783.5000000000;98.8287734985
784.0000000000;98.8960494995
784.5000000000;98.9489669800
785.0000000000;98.9723205566
785.5000000000;98.9794540405
786.0000000000;99.0076065063
786.5000000000;99.0476226807
787.0000000000;99.0775222778
787.5000000000;99.1056900024
788.0000000000;99.1237487793
788.5000000000;99.1155090332
789.0000000000;99.1184539795
789.5000000000;99.1524658203
790.0000000000;99.1892395020
790.5000000000;99.2159423828
791.0000000000;99.2345352173
791.5000000000;99.2577590942
792.0000000000;99.2908325195
792.5000000000;99.3273239136
793.0000000000;99.3478012085
793.5000000000;99.3369522095
794.0000000000;99.2968368530
794.5000000000;99.2764282227
795.0000000000;99.3172149658
795.5000000000;99.3742828369
796.0000000000;99.4218139648
796.5000000000;99.4615707397
797.0000000000;99.4722518921
797.5000000000;99.4567108154
798.0000000000;99.4616317749
798.5000000000;99.4769668579
799.0000000000;99.4774398804
799.5000000000;99.4915237427
800.0000000000;99.5197219849
800.5000000000;99.5332717896
801.0000000000;99.5395584106
801.5000000000;99.5488815308
802.0000000000;99.5577392578
802.5000000000;99.5732879639
803.0000000000;99.6001663208
803.5000000000;99.6176681519
804.0000000000;99.6265029907
804.5000000000;99.6453170776
805.0000000000;99.6576461792
805.5000000000;99.6480636597
806.0000000000;99.6242370605
806.5000000000;99.6139755249
807.0000000000;99.6375122070
807.5000000000;99.6644973755
808.0000000000;99.6741943359
808.5000000000;99.6700134277
809.0000000000;99.6828613281
809.5000000000;99.7225494385
810.0000000000;99.7510833740
810.5000000000;99.7417449951
811.0000000000;99.7022094727
811.5000000000;99.7037353516
812.0000000000;99.7500686646
812.5000000000;99.7803344727
813.0000000000;99.7807083130
813.5000000000;99.7649841309
814.0000000000;99.7622375488
814.5000000000;99.7794723511
815.0000000000;99.8022918701
815.5000000000;99.7953948975
816.0000000000;99.7792968750
816.5000000000;99.8092498779
817.0000000000;99.8506546021
817.5000000000;99.8704299927
818.0000000000;99.8798370361
818.5000000000;99.8914871216
819.0000000000;99.9094848633
819.5000000000;99.9193649292
820.0000000000;99.9066772461
820.5000000000;99.8729171753
821.0000000000;99.8763046265
821.5000000000;99.9283294678
822.0000000000;99.9595642090
822.5000000000;99.9660491943
823.0000000000;99.9701538086
823.5000000000;99.9702911377
824.0000000000;99.9680328369
824.5000000000;99.9713134766
825.0000000000;99.9910812378
825.5000000000;100.0216827393
826.0000000000;100.0363082886
826.5000000000;100.0221405029
827.0000000000;99.9949569702
827.5000000000;100.0124435425
828.0000000000;100.0632476807
828.5000000000;100.0950088501
829.0000000000;100.1131973267
829.5000000000;100.1308288574
830.0000000000;100.1514053345
830.5000000000;100.1680831909
831.0000000000;100.1753387451
831.5000000000;100.1786422729
832.0000000000;100.1755142212
832.5000000000;100.1640167236
833.0000000000;100.1652755737
833.5000000000;100.1896667480
834.0000000000;100.2212524414
834.5000000000;100.1954956055
835.0000000000;100.1190719604
835.5000000000;100.1411666870
836.0000000000;100.2155456543
836.5000000000;100.2226409912
837.0000000000;100.2266998291
837.5000000000;100.2504348755
838.0000000000;100.2515487671
838.5000000000;100.2551574707
839.0000000000;100.2725296021
839.5000000000;100.2616958618
840.0000000000;100.2448577881
840.5000000000;100.2547073364
841.0000000000;100.2539291382
841.5000000000;100.2509002686
842.0000000000;100.2841033936
842.5000000000;100.2978591919
843.0000000000;100.2805099487
843.5000000000;100.3079452515
844.0000000000;100.3450775146
844.5000000000;100.3409576416
845.0000000000;100.3351974487
845.5000000000;100.3390426636
846.0000000000;100.3417739868
846.5000000000;100.3689041138
847.0000000000;100.4061431885
847.5000000000;100.3942108154
848.0000000000;100.3763885498
848.5000000000;100.3933792114
849.0000000000;100.3996429443
849.5000000000;100.3932876587
850.0000000000;100.3971481323
850.5000000000;100.3977661133
851.0000000000;100.3837509155
851.5000000000;100.3567962646
852.0000000000;100.3345794678
852.5000000000;100.3237533569
853.0000000000;100.3070068359
853.5000000000;100.2892608643
854.0000000000;100.2855606079
854.5000000000;100.3015136719
855.0000000000;100.3248748779
855.5000000000;100.3343963623
856.0000000000;100.3302078247
856.5000000000;100.3288269043
857.0000000000;100.3523025513
857.5000000000;100.3568191528
858.0000000000;100.3210830688
858.5000000000;100.3336563110
859.0000000000;100.3542098999
859.5000000000;100.2979354858
860.0000000000;100.2968139648
860.5000000000;100.3645858765
861.0000000000;100.3551864624
861.5000000000;100.3339996338
862.0000000000;100.3646087646
862.5000000000;100.3650588989
863.0000000000;100.3492584229
863.5000000000;100.3661270142
864.0000000000;100.3743209839
864.5000000000;100.3611679077
865.0000000000;100.3516082764
865.5000000000;100.3491592407
866.0000000000;100.3465957642
866.5000000000;100.3356475830
867.0000000000;100.3422546387
867.5000000000;100.3718795776
868.0000000000;100.3524017334
868.5000000000;100.3122177124
869.0000000000;100.3319396973
869.5000000000;100.3732757568
870.0000000000;100.3932266235
870.5000000000;100.3816223145
871.0000000000;100.3566970825
871.5000000000;100.3429946899
872.0000000000;100.3538589478
872.5000000000;100.3525390625
873.0000000000;100.3165512085
873.5000000000;100.3376312256
874.0000000000;100.3883743286
874.5000000000;100.3601837158
875.0000000000;100.3540573120
875.5000000000;100.4117660522
876.0000000000;100.4213180542
876.5000000000;100.3964004517
877.0000000000;100.3904647827
877.5000000000;100.4028396606
878.0000000000;100.4152069092
878.5000000000;100.4068450928
879.0000000000;100.3754730225
879.5000000000;100.3612213135
880.0000000000;100.4198455811
880.5000000000;100.4659194946
881.0000000000;100.4561691284
881.5000000000;100.4890747070
882.0000000000;100.5251312256
882.5000000000;100.4959793091
883.0000000000;100.4701080322
883.5000000000;100.4746246338
884.0000000000;100.4925079346
884.5000000000;100.5347595215
885.0000000000;100.5732192993
885.5000000000;100.5433807373
886.0000000000;100.5201797485
886.5000000000;100.5553512573
887.0000000000;100.5596084595
887.5000000000;100.5342407227
888.0000000000;100.5304565430
888.5000000000;100.5523452759
889.0000000000;100.5709915161
889.5000000000;100.5508728027
890.0000000000;100.5310668945
890.5000000000;100.5498504639
891.0000000000;100.6051635742
891.5000000000;100.6198959351
892.0000000000;100.5681152344
892.5000000000;100.5841140747
893.0000000000;100.6441268921
893.5000000000;100.6429214478
894.0000000000;100.6091232300
894.5000000000;100.5980758667
895.0000000000;100.6432266235
895.5000000000;100.6691818237
896.0000000000;100.6498260498
896.5000000000;100.6697845459
897.0000000000;100.7007522583
897.5000000000;100.6940994263
898.0000000000;100.6889419556
898.5000000000;100.6967926025
899.0000000000;100.7034759521
899.5000000000;100.7077026367
900.0000000000;100.7235794067
900.5000000000;100.7670822144
901.0000000000;100.7914505005
901.5000000000;100.7748413086
902.0000000000;100.7642288208
902.5000000000;100.7787094116
903.0000000000;100.8080139160
903.5000000000;100.8139724731
904.0000000000;100.7887725830
904.5000000000;100.7585372925
905.0000000000;100.7729492188
905.5000000000;100.8325881958
906.0000000000;100.8810882568
906.5000000000;100.8882675171
907.0000000000;100.8625869751
907.5000000000;100.8522109985
908.0000000000;100.8584518433
908.5000000000;100.8654327393
909.0000000000;100.8801193237
909.5000000000;100.9159240723
910.0000000000;100.9715194702
910.5000000000;100.9868392944
911.0000000000;100.9636383057
911.5000000000;100.9724578857
912.0000000000;101.0034103394
912.5000000000;101.0304946899
913.0000000000;101.0487365723
913.5000000000;101.0469665527
914.0000000000;101.0294113159
914.5000000000;101.0419845581
915.0000000000;101.0523986816
915.5000000000;101.0055007935
916.0000000000;100.9839935303
916.5000000000;101.0046920776
917.0000000000;101.0020065308
917.5000000000;101.0293273926
918.0000000000;101.1149063110
918.5000000000;101.1863632202
919.0000000000;101.2054138184
919.5000000000;101.1921310425
920.0000000000;101.2399063110
920.5000000000;101.3033676147
921.0000000000;101.2793731689
921.5000000000;101.2315979004
922.0000000000;101.2155761719
922.5000000000;101.2394409180
923.0000000000;101.3037261963
923.5000000000;101.3701858521
924.0000000000;101.3597106934
924.5000000000;101.3118820190
925.0000000000;101.3042526245
925.5000000000;101.3633041382
926.0000000000;101.4025878906
926.5000000000;101.3384933472
927.0000000000;101.3122024536
927.5000000000;101.3672027588
928.0000000000;101.4194488525
928.5000000000;101.4185333252
929.0000000000;101.3885116577
929.5000000000;101.4200439453
930.0000000000;101.4697418213
930.5000000000;101.4986724854
931.0000000000;101.5733337402
931.5000000000;101.6047973633
932.0000000000;101.5169525146
932.5000000000;101.5301055908
933.0000000000;101.6373748779
933.5000000000;101.6479339600
934.0000000000;101.5932769775
934.5000000000;101.5451736450
935.0000000000;101.5499649048
935.5000000000;101.6150894165
936.0000000000;101.7100753784
936.5000000000;101.7677230835
937.0000000000;101.7480621338
937.5000000000;101.6886062622
938.0000000000;101.7484436035
938.5000000000;101.8160247803
939.0000000000;101.7075500488
939.5000000000;101.7067184448
940.0000000000;101.8730087280
940.5000000000;101.9670791626
941.0000000000;101.9332733154
941.5000000000;101.8454666138
942.0000000000;101.8502273560
942.5000000000;101.9184799194
943.0000000000;101.9672622681
943.5000000000;101.9737930298
944.0000000000;101.9671859741
944.5000000000;101.9873504639
945.0000000000;102.0258331299
945.5000000000;102.0659561157
946.0000000000;102.0981292725
946.5000000000;102.1403274536
947.0000000000;102.1926879883
947.5000000000;102.2259292603
948.0000000000;102.2144546509
948.5000000000;102.1766586304
949.0000000000;102.1892547607
949.5000000000;102.2455291748
950.0000000000;102.3082733154
950.5000000000;102.3678970337
951.0000000000;102.3541946411
951.5000000000;102.2422103882
952.0000000000;102.2771835327
952.5000000000;102.4802322388
953.0000000000;102.6374740601
953.5000000000;102.6807327271
954.0000000000;102.6517791748
954.5000000000;102.6569061279
955.0000000000;102.6604995728
955.5000000000;102.6291198730
956.0000000000;102.6302490234
956.5000000000;102.6785812378
957.0000000000;102.7396469116
957.5000000000;102.7520980835
958.0000000000;102.7623367310
958.5000000000;102.8463516235
959.0000000000;102.9029464722
959.5000000000;102.8911132813
960.0000000000;102.8697052002
960.5000000000;102.9046630859
961.0000000000;103.0184173584
961.5000000000;103.1536178589
962.0000000000;103.1279754639
962.5000000000;102.9552154541
963.0000000000;103.0214614868
963.5000000000;103.1366043091
964.0000000000;103.0365829468
964.5000000000;103.0736618042
965.0000000000;103.2025985718
965.5000000000;103.1710357666
966.0000000000;103.2322998047
966.5000000000;103.3427429199
967.0000000000;103.1990356445
967.5000000000;103.1333770752
968.0000000000;103.3069763184
968.5000000000;103.4355392456
969.0000000000;103.3854980469
969.5000000000;103.2406387329
970.0000000000;103.2840423584
970.5000000000;103.3320541382
971.0000000000;103.1974563599
971.5000000000;103.2592544556
972.0000000000;103.4467010498
972.5000000000;103.4474945068
973.0000000000;103.3812026978
973.5000000000;103.3642578125
974.0000000000;103.4137344360
974.5000000000;103.4834213257
975.0000000000;103.5197601318
975.5000000000;103.4988479614
976.0000000000;103.5108718872
976.5000000000;103.5939865112
977.0000000000;103.6450805664
977.5000000000;103.6400985718
978.0000000000;103.6186218262
978.5000000000;103.6477050781
979.0000000000;103.6752319336
979.5000000000;103.6142807007
980.0000000000;103.5107955933
980.5000000000;103.4978790283
981.0000000000;103.6578369141
981.5000000000;103.6893615723
982.0000000000;103.5572662354
982.5000000000;103.5503005981
983.0000000000;103.6192779541
983.5000000000;103.6404724121
984.0000000000;103.5784835815
984.5000000000;103.6246643066
985.0000000000;103.8183975220
985.5000000000;103.7961349487
986.0000000000;103.6961975098
986.5000000000;103.7987823486
987.0000000000;103.9889831543
987.5000000000;103.9645767212
988.0000000000;103.6396560669
988.5000000000;103.8487777710
989.0000000000;104.3016586304
989.5000000000;103.9599838257
990.0000000000;103.7537918091
990.5000000000;104.0086669922
991.0000000000;103.9136199951
991.5000000000;103.7469177246
992.0000000000;103.8699569702
992.5000000000;104.1344833374
993.0000000000;104.2155990601
993.5000000000;104.0486602783
994.0000000000;104.1303634644
994.5000000000;104.3210296631
995.0000000000;104.2496032715
995.5000000000;104.0147552490
996.0000000000;103.8527603149
996.5000000000;103.9137954712
997.0000000000;103.9343948364
997.5000000000;103.9800567627
998.0000000000;104.3062744141
998.5000000000;104.3356246948
999.0000000000;104.0218963623
999.5000000000;104.0645141602
1000.0000000000;104.2681961060
1000.5000000000;104.2772674561
1001.0000000000;104.0622940063
1001.5000000000;104.1116409302
1002.0000000000;104.5678176880
1002.5000000000;104.6015014648
1003.0000000000;104.4429244995
1003.5000000000;104.5906600952
1004.0000000000;104.5992355347
1004.5000000000;104.4288558960
1005.0000000000;104.3561019897
1005.5000000000;104.4075393677
1006.0000000000;104.4656829834
1006.5000000000;104.4090499878
1007.0000000000;104.4306945801
1007.5000000000;104.5541534424
1008.0000000000;104.5873947144
1008.5000000000;104.6514205933
1009.0000000000;104.6841125488
1009.5000000000;104.3652877808
1010.0000000000;104.2869873047
1010.5000000000;104.7103729248
1011.0000000000;104.7749099731
1011.5000000000;104.5116348267
1012.0000000000;104.3958282471
1012.5000000000;104.6809844971
1013.0000000000;105.0065231323
1013.5000000000;104.9046859741
1014.0000000000;104.6485137939
1014.5000000000;104.5196228027
1015.0000000000;104.6166534424
1015.5000000000;104.7407226563
1016.0000000000;104.8387832642
1016.5000000000;105.0082550049
1017.0000000000;105.1154785156
1017.5000000000;105.0834274292
1018.0000000000;104.9607162476
1018.5000000000;104.7074203491
1019.0000000000;104.4855422974
1019.5000000000;104.7113189697
