182.5000000000;0.9660770893
183.0000000000;0.9532101154
183.5000000000;0.9674566984
184.0000000000;1.0021507740
184.5000000000;1.0271706581
185.0000000000;1.0905145407
185.5000000000;1.2179517746
186.0000000000;1.3027887344
186.5000000000;1.4234386683
187.0000000000;1.7276943922
187.5000000000;1.9637439251
188.0000000000;2.0164520741
188.5000000000;2.1119105816
189.0000000000;2.3109176159
189.5000000000;2.4492177963
190.0000000000;2.4990878105
190.5000000000;2.5149300098
191.0000000000;2.5660662651
191.5000000000;2.6805126667
192.0000000000;2.7659430504
192.5000000000;2.7777900696
193.0000000000;2.7672154903
193.5000000000;2.7782990932
194.0000000000;2.8223295212
194.5000000000;2.8540000916
195.0000000000;2.8438117504
195.5000000000;2.8577039242
196.0000000000;2.9056565762
196.5000000000;2.9377994537
197.0000000000;2.9303104877
197.5000000000;2.8981883526
198.0000000000;2.9077847004
198.5000000000;2.9684309959
199.0000000000;3.0144286156
199.5000000000;3.0345675945
200.0000000000;3.0594470501
200.5000000000;3.0991027355
201.0000000000;3.1456563473
201.5000000000;3.1669204235
202.0000000000;3.1746618748
202.5000000000;3.2099921703
203.0000000000;3.2418813705
203.5000000000;3.2327210903
204.0000000000;3.2194516659
204.5000000000;3.2196412086
205.0000000000;3.2185709476
205.5000000000;3.2174754143
206.0000000000;3.2240197659
206.5000000000;3.2293894291
207.0000000000;3.2238376141
207.5000000000;3.2059514523
208.0000000000;3.1790730953
208.5000000000;3.1532778740
209.0000000000;3.1610820293
209.5000000000;3.2086887360
210.0000000000;3.1970496178
210.5000000000;3.1346967220
211.0000000000;3.1365616322
211.5000000000;3.1630704403
212.0000000000;3.1385936737
212.5000000000;3.1272852421
213.0000000000;3.1545701027
213.5000000000;3.1591124535
214.0000000000;3.1438117027
214.5000000000;3.1502835751
215.0000000000;3.1729660034
215.5000000000;3.1928255558
216.0000000000;3.1913611889
216.5000000000;3.1896264553
217.0000000000;3.2306907177
217.5000000000;3.2805466652
218.0000000000;3.2889134884
218.5000000000;3.2876112461
219.0000000000;3.3048737049
219.5000000000;3.3438334465
220.0000000000;3.3670015335
220.5000000000;3.3386366367
221.0000000000;3.3342630863
221.5000000000;3.3774721622
222.0000000000;3.3694691658
222.5000000000;3.3252375126
223.0000000000;3.3340818882
223.5000000000;3.3632798195
224.0000000000;3.3566539288
224.5000000000;3.3239696026
225.0000000000;3.2862820625
225.5000000000;3.2597866058
226.0000000000;3.2554576397
226.5000000000;3.2749805450
227.0000000000;3.2847521305
227.5000000000;3.2677683830
228.0000000000;3.2520780563
228.5000000000;3.2505865097
229.0000000000;3.2596890926
229.5000000000;3.2547223568
230.0000000000;3.2270843983
230.5000000000;3.2112267017
231.0000000000;3.2019739151
231.5000000000;3.1696155071
232.0000000000;3.1613340378
232.5000000000;3.2087593079
233.0000000000;3.2152438164
233.5000000000;3.1660716534
234.0000000000;3.1684403419
234.5000000000;3.2112574577
235.0000000000;3.2312457561
235.5000000000;3.2249455452
236.0000000000;3.2177793980
236.5000000000;3.2445223331
237.0000000000;3.2746345997
237.5000000000;3.2423548698
238.0000000000;3.2087218761
238.5000000000;3.2228598595
239.0000000000;3.2563893795
239.5000000000;3.2735409737
240.0000000000;3.2493426800
240.5000000000;3.2254528999
241.0000000000;3.2398817539
241.5000000000;3.2625157833
242.0000000000;3.2736496925
242.5000000000;3.2846784592
243.0000000000;3.2814135551
243.5000000000;3.2473711967
244.0000000000;3.2222211361
244.5000000000;3.2209725380
245.0000000000;3.2058084011
245.5000000000;3.1761815548
246.0000000000;3.1583223343
246.5000000000;3.1497054100
247.0000000000;3.1399183273
247.5000000000;3.1225156784
248.0000000000;3.1036398411
248.5000000000;3.0982730389
249.0000000000;3.0881705284
249.5000000000;3.0561161041
250.0000000000;3.0465102196
250.5000000000;3.0699291229
251.0000000000;3.0663723946
251.5000000000;3.0317404270
252.0000000000;3.0039889812
252.5000000000;2.9885389805
253.0000000000;2.9803326130
253.5000000000;2.9709019661
254.0000000000;2.9605607986
254.5000000000;2.9562082291
255.0000000000;2.9512832165
255.5000000000;2.9407112598
256.0000000000;2.9389829636
256.5000000000;2.9437451363
257.0000000000;2.9299354553
257.5000000000;2.8996050358
258.0000000000;2.8726108074
258.5000000000;2.8762922287
259.0000000000;2.9054086208
259.5000000000;2.8978192806
260.0000000000;2.8742594719
260.5000000000;2.8930778503
261.0000000000;2.8913974762
261.5000000000;2.8362317085
262.0000000000;2.8196647167
262.5000000000;2.8380980492
263.0000000000;2.8179955482
263.5000000000;2.7975838184
264.0000000000;2.8193476200
264.5000000000;2.8290181160
265.0000000000;2.8030436039
265.5000000000;2.7785665989
266.0000000000;2.7855947018
266.5000000000;2.8336136341
267.0000000000;2.8523943424
267.5000000000;2.8140897751
268.0000000000;2.7966177464
268.5000000000;2.8193984032
269.0000000000;2.8612031937
269.5000000000;2.8649647236
270.0000000000;2.8196527958
270.5000000000;2.8170273304
271.0000000000;2.8548443317
271.5000000000;2.8537907600
272.0000000000;2.8356466293
272.5000000000;2.8413288593
273.0000000000;2.8454463482
273.5000000000;2.8360559940
274.0000000000;2.8291616440
274.5000000000;2.8255302906
275.0000000000;2.8184163570
275.5000000000;2.8060164452
276.0000000000;2.7888011932
276.5000000000;2.7691650391
277.0000000000;2.7535386086
277.5000000000;2.7489678860
278.0000000000;2.7533769608
278.5000000000;2.7559061050
279.0000000000;2.7339529991
279.5000000000;2.6949586868
280.0000000000;2.6680841446
280.5000000000;2.6594839096
281.0000000000;2.6633591652
281.5000000000;2.6605634689
282.0000000000;2.6377060413
282.5000000000;2.5965983868
283.0000000000;2.5598843098
283.5000000000;2.5467112064
284.0000000000;2.5448153019
284.5000000000;2.5389633179
285.0000000000;2.5197110176
285.5000000000;2.4914424419
286.0000000000;2.4666533470
286.5000000000;2.4562821388
287.0000000000;2.4549791813
287.5000000000;2.4289300442
288.0000000000;2.3923585415
288.5000000000;2.3870365620
289.0000000000;2.3949408531
289.5000000000;2.3883702755
290.0000000000;2.3730487823
290.5000000000;2.3575437069
291.0000000000;2.3467917442
291.5000000000;2.3423418999
292.0000000000;2.3410446644
292.5000000000;2.3294446468
293.0000000000;2.3111741543
293.5000000000;2.3113055229
294.0000000000;2.3193490505
294.5000000000;2.3100404739
295.0000000000;2.2971358299
295.5000000000;2.2908854485
296.0000000000;2.2800490856
296.5000000000;2.2685589790
297.0000000000;2.2687919140
297.5000000000;2.2705118656
298.0000000000;2.2631680965
298.5000000000;2.2530405521
299.0000000000;2.2448024750
299.5000000000;2.2400126457
300.0000000000;2.2445747852
300.5000000000;2.2578132153
301.0000000000;2.2527172565
301.5000000000;2.2291827202
302.0000000000;2.2205641270
302.5000000000;2.2234861851
303.0000000000;2.2199304104
303.5000000000;2.2106168270
304.0000000000;2.2004637718
304.5000000000;2.1933834553
305.0000000000;2.1879637241
305.5000000000;2.1805009842
306.0000000000;2.1731359959
306.5000000000;2.1679437160
307.0000000000;2.1634755135
307.5000000000;2.1574823856
308.0000000000;2.1477437019
308.5000000000;2.1339616776
309.0000000000;2.1185238361
309.5000000000;2.1083381176
310.0000000000;2.1030101776
310.5000000000;2.0947105885
311.0000000000;2.0841593742
311.5000000000;2.0745341778
312.0000000000;2.0628070831
312.5000000000;2.0484657288
313.0000000000;2.0354270935
313.5000000000;2.0225439072
314.0000000000;2.0069279671
314.5000000000;1.9914124012
315.0000000000;1.9780833721
315.5000000000;1.9653558731
316.0000000000;1.9511225224
316.5000000000;1.9341667891
317.0000000000;1.9184825420
317.5000000000;1.9061776400
318.0000000000;1.8921102285
318.5000000000;1.8753541708
319.0000000000;1.8594892025
319.5000000000;1.8457951546
320.0000000000;1.8334614038
320.5000000000;1.8187857866
321.0000000000;1.8014150858
321.5000000000;1.7851533890
322.0000000000;1.7711123228
322.5000000000;1.7584697008
323.0000000000;1.7449462414
323.5000000000;1.7295233011
324.0000000000;1.7134629488
324.5000000000;1.6986193657
325.0000000000;1.6861962080
325.5000000000;1.6730918884
326.0000000000;1.6582065821
326.5000000000;1.6459163427
327.0000000000;1.6353969574
327.5000000000;1.6222730875
328.0000000000;1.6085127592
328.5000000000;1.5965235233
329.0000000000;1.5845972300
329.5000000000;1.5726091862
330.0000000000;1.5622198582
330.5000000000;1.5517483950
331.0000000000;1.5397987366
331.5000000000;1.5300910473
332.0000000000;1.5230734348
332.5000000000;1.5144846439
333.0000000000;1.5035462379
333.5000000000;1.4917006493
334.0000000000;1.4808536768
334.5000000000;1.4719159603
335.0000000000;1.4642598629
335.5000000000;1.4572657347
336.0000000000;1.4504027367
336.5000000000;1.4429641962
337.0000000000;1.4345971346
337.5000000000;1.4256826639
338.0000000000;1.4174655676
338.5000000000;1.4113413095
339.0000000000;1.4058094025
339.5000000000;1.3996779919
340.0000000000;1.3945739269
340.5000000000;1.3899339437
341.0000000000;1.3833088875
341.5000000000;1.3764666319
342.0000000000;1.3714419603
342.5000000000;1.3663206100
343.0000000000;1.3612637520
343.5000000000;1.3589078188
344.0000000000;1.3564968109
344.5000000000;1.3503670692
345.0000000000;1.3434097767
345.5000000000;1.3384896517
346.0000000000;1.3362922668
346.5000000000;1.3340905905
347.0000000000;1.3289440870
347.5000000000;1.3253879547
348.0000000000;1.3250735998
348.5000000000;1.3220158815
349.0000000000;1.3168302774
349.5000000000;1.3143383265
350.0000000000;1.3128308058
350.5000000000;1.3100284338
351.0000000000;1.3067859411
351.5000000000;1.3040624857
352.0000000000;1.3024240732
352.5000000000;1.3015713692
353.0000000000;1.3005815744
353.5000000000;1.2978961468
354.0000000000;1.2949721813
354.5000000000;1.2956733704
355.0000000000;1.2968934774
355.5000000000;1.2947299480
356.0000000000;1.2929884195
356.5000000000;1.2930256128
357.0000000000;1.2916201353
357.5000000000;1.2891732454
358.0000000000;1.2876468897
358.5000000000;1.2866295576
359.0000000000;1.2858120203
359.5000000000;1.2860648632
360.0000000000;1.2877707481
360.5000000000;1.2898446321
361.0000000000;1.2900866270
361.5000000000;1.2885261774
362.0000000000;1.2875905037
362.5000000000;1.2876716852
363.0000000000;1.2875174284
363.5000000000;1.2875607014
364.0000000000;1.2884504795
364.5000000000;1.2898669243
365.0000000000;1.2909632921
365.5000000000;1.2908395529
366.0000000000;1.2905920744
366.5000000000;1.2916207314
367.0000000000;1.2938814163
367.5000000000;1.2959966660
368.0000000000;1.2957564592
368.5000000000;1.2950768471
369.0000000000;1.2963931561
369.5000000000;1.2972416878
370.0000000000;1.2963942289
370.5000000000;1.2956626415
371.0000000000;1.2963835001
371.5000000000;1.2988232374
372.0000000000;1.3007612228
372.5000000000;1.3009401560
373.0000000000;1.3005867004
373.5000000000;1.3008145094
374.0000000000;1.3021289110
374.5000000000;1.3032906055
375.0000000000;1.3036373854
375.5000000000;1.3044332266
376.0000000000;1.3059645891
376.5000000000;1.3076217175
377.0000000000;1.3090596199
377.5000000000;1.3098733425
378.0000000000;1.3095011711
378.5000000000;1.3089559078
379.0000000000;1.3102433681
379.5000000000;1.3122824430
380.0000000000;1.3130550385
380.5000000000;1.3112282753
381.0000000000;1.3086620569
381.5000000000;1.3096153736
382.0000000000;1.3114144802
382.5000000000;1.3104298115
383.0000000000;1.3100606203
383.5000000000;1.3109246492
384.0000000000;1.3092730045
384.5000000000;1.3066592216
385.0000000000;1.3060609102
385.5000000000;1.3051789999
386.0000000000;1.3030606508
386.5000000000;1.3018710613
387.0000000000;1.3005548716
387.5000000000;1.2973300219
388.0000000000;1.2955752611
388.5000000000;1.2961871624
389.0000000000;1.2945221663
389.5000000000;1.2900385857
390.0000000000;1.2855682373
390.5000000000;1.2830452919
391.0000000000;1.2817486525
391.5000000000;1.2772397995
392.0000000000;1.2705712318
392.5000000000;1.2663592100
393.0000000000;1.2637730837
393.5000000000;1.2606084347
394.0000000000;1.2558716536
394.5000000000;1.2507771254
395.0000000000;1.2472302914
395.5000000000;1.2430298328
396.0000000000;1.2363481522
396.5000000000;1.2295688391
397.0000000000;1.2239905596
397.5000000000;1.2191352844
398.0000000000;1.2143058777
398.5000000000;1.2087662220
399.0000000000;1.2017378807
399.5000000000;1.1938070059
400.0000000000;1.1869162321
400.5000000000;1.1803507805
401.0000000000;1.1728501320
401.5000000000;1.1652163267
402.0000000000;1.1576317549
402.5000000000;1.1494307518
403.0000000000;1.1416801214
403.5000000000;1.1353075504
404.0000000000;1.1280453205
404.5000000000;1.1193366051
405.0000000000;1.1113747358
405.5000000000;1.1035398245
406.0000000000;1.0942938328
406.5000000000;1.0849504471
407.0000000000;1.0760732889
407.5000000000;1.0666452646
408.0000000000;1.0570188761
408.5000000000;1.0481261015
409.0000000000;1.0389827490
409.5000000000;1.0289421082
410.0000000000;1.0193065405
410.5000000000;1.0104058981
411.0000000000;1.0015323162
411.5000000000;0.9922800064
412.0000000000;0.9826675057
412.5000000000;0.9729750752
413.0000000000;0.9637005925
413.5000000000;0.9547688961
414.0000000000;0.9452750683
414.5000000000;0.9349380136
415.0000000000;0.9245895743
415.5000000000;0.9148395658
416.0000000000;0.9052546024
416.5000000000;0.8954415917
417.0000000000;0.8856824636
417.5000000000;0.8764320016
418.0000000000;0.8674942851
418.5000000000;0.8581350446
419.0000000000;0.8483808637
419.5000000000;0.8389493823
420.0000000000;0.8300350308
420.5000000000;0.8211176395
421.0000000000;0.8116350174
421.5000000000;0.8023911715
422.0000000000;0.7938412428
422.5000000000;0.7851055264
423.0000000000;0.7761496305
423.5000000000;0.7676241398
424.0000000000;0.7590999007
424.5000000000;0.7496649623
425.0000000000;0.7402113676
425.5000000000;0.7317155600
426.0000000000;0.7229130268
426.5000000000;0.7136452198
427.0000000000;0.7054502964
427.5000000000;0.6982782483
428.0000000000;0.6908456683
428.5000000000;0.6823571920
429.0000000000;0.6732583642
429.5000000000;0.6649751663
430.0000000000;0.6574816108
430.5000000000;0.6500881314
431.0000000000;0.6427569985
431.5000000000;0.6350911856
432.0000000000;0.6267659664
432.5000000000;0.6189374924
433.0000000000;0.6120252609
433.5000000000;0.6048375368
434.0000000000;0.5978204608
434.5000000000;0.5910987258
435.0000000000;0.5839197636
435.5000000000;0.5767481923
436.0000000000;0.5699634552
436.5000000000;0.5634516478
437.0000000000;0.5571560264
437.5000000000;0.5508473516
438.0000000000;0.5444372296
438.5000000000;0.5381273627
439.0000000000;0.5320027471
439.5000000000;0.5260155797
440.0000000000;0.5199835300
440.5000000000;0.5138330460
441.0000000000;0.5080626011
441.5000000000;0.5030446649
442.0000000000;0.4979133308
442.5000000000;0.4920723736
443.0000000000;0.4859918356
443.5000000000;0.4803617895
444.0000000000;0.4753076434
444.5000000000;0.4704142809
445.0000000000;0.4653775990
445.5000000000;0.4601283073
446.0000000000;0.4550793171
446.5000000000;0.4503385425
447.0000000000;0.4454874396
447.5000000000;0.4405331612
448.0000000000;0.4357870817
448.5000000000;0.4312816262
449.0000000000;0.4269136786
449.5000000000;0.4225288630
450.0000000000;0.4180931449
450.5000000000;0.4136415720
451.0000000000;0.4092072845
451.5000000000;0.4048705101
452.0000000000;0.4007092416
452.5000000000;0.3966720104
453.0000000000;0.3926508725
453.5000000000;0.3886818886
454.0000000000;0.3847787976
454.5000000000;0.3808673918
455.0000000000;0.3770095110
455.5000000000;0.3733016551
456.0000000000;0.3697345257
456.5000000000;0.3662213683
457.0000000000;0.3626591563
457.5000000000;0.3591591716
458.0000000000;0.3558587730
458.5000000000;0.3526422083
459.0000000000;0.3492968976
459.5000000000;0.3458296061
460.0000000000;0.3423588574
460.5000000000;0.3389093578
461.0000000000;0.3354807198
461.5000000000;0.3322307467
462.0000000000;0.3292405605
462.5000000000;0.3264135122
463.0000000000;0.3237616718
463.5000000000;0.3210437298
464.0000000000;0.3180289865
464.5000000000;0.3151055872
465.0000000000;0.3122932613
465.5000000000;0.3092720807
466.0000000000;0.3064287305
466.5000000000;0.3039337993
467.0000000000;0.3011263311
467.5000000000;0.2981335521
468.0000000000;0.2955482304
468.5000000000;0.2930743396
469.0000000000;0.2903047204
469.5000000000;0.2873478234
470.0000000000;0.2845337391
470.5000000000;0.2821223140
471.0000000000;0.2798325419
471.5000000000;0.2774094343
472.0000000000;0.2749844193
472.5000000000;0.2727392912
473.0000000000;0.2707816362
473.5000000000;0.2687434256
474.0000000000;0.2662932873
474.5000000000;0.2637062669
475.0000000000;0.2613489628
475.5000000000;0.2593348324
476.0000000000;0.2573660314
476.5000000000;0.2552257478
477.0000000000;0.2530645430
477.5000000000;0.2509669960
478.0000000000;0.2489578128
478.5000000000;0.2469748557
479.0000000000;0.2449155897
479.5000000000;0.2429231256
480.0000000000;0.2410869449
480.5000000000;0.2392684817
481.0000000000;0.2373217493
481.5000000000;0.2352920622
482.0000000000;0.2335068583
482.5000000000;0.2319145948
483.0000000000;0.2302032262
483.5000000000;0.2284950763
484.0000000000;0.2269825488
484.5000000000;0.2255889624
485.0000000000;0.2237202674
485.5000000000;0.2214802206
486.0000000000;0.2205132544
486.5000000000;0.2206071764
487.0000000000;0.2192056477
487.5000000000;0.2160535902
488.0000000000;0.2138260603
488.5000000000;0.2124589980
489.0000000000;0.2109764963
489.5000000000;0.2094849199
490.0000000000;0.2081016153
490.5000000000;0.2067319751
491.0000000000;0.2052873671
491.5000000000;0.2037581354
492.0000000000;0.2022350430
492.5000000000;0.2009089142
493.0000000000;0.1999089271
493.5000000000;0.1987876892
494.0000000000;0.1972041875
494.5000000000;0.1955457777
495.0000000000;0.1940680295
495.5000000000;0.1927501559
496.0000000000;0.1915442497
496.5000000000;0.1904251277
497.0000000000;0.1893524826
497.5000000000;0.1882011145
498.0000000000;0.1869277358
498.5000000000;0.1858418733
499.0000000000;0.1850113273
499.5000000000;0.1839018464
500.0000000000;0.1824958324
500.5000000000;0.1812652797
501.0000000000;0.1803273857
501.5000000000;0.1795287430
502.0000000000;0.1784670353
502.5000000000;0.1772119254
503.0000000000;0.1762055010
503.5000000000;0.1752010584
504.0000000000;0.1739658117
504.5000000000;0.1728598773
505.0000000000;0.1719719619
505.5000000000;0.1711013764
506.0000000000;0.1701469719
506.5000000000;0.1690952480
507.0000000000;0.1680486649
507.5000000000;0.1670975536
508.0000000000;0.1662960052
508.5000000000;0.1654728651
509.0000000000;0.1644733995
509.5000000000;0.1634091288
510.0000000000;0.1624695808
510.5000000000;0.1617720872
511.0000000000;0.1610703766
511.5000000000;0.1601988077
512.0000000000;0.1593325585
512.5000000000;0.1585351974
513.0000000000;0.1577507704
513.5000000000;0.1568206996
514.0000000000;0.1557703018
514.5000000000;0.1550044715
515.0000000000;0.1543845683
515.5000000000;0.1534785330
516.0000000000;0.1525854766
516.5000000000;0.1519115865
517.0000000000;0.1511538178
517.5000000000;0.1503389627
518.0000000000;0.1496799588
518.5000000000;0.1489769369
519.0000000000;0.1481381357
519.5000000000;0.1474345922
520.0000000000;0.1468051523
520.5000000000;0.1460192055
521.0000000000;0.1452675462
521.5000000000;0.1446482241
522.0000000000;0.1439020932
522.5000000000;0.1430764943
523.0000000000;0.1423962861
523.5000000000;0.1417610198
524.0000000000;0.1410536617
524.5000000000;0.1402941197
525.0000000000;0.1395934075
525.5000000000;0.1390479505
526.0000000000;0.1385065168
526.5000000000;0.1378902644
527.0000000000;0.1373071969
527.5000000000;0.1366958767
528.0000000000;0.1359555572
528.5000000000;0.1352723092
529.0000000000;0.1347037852
529.5000000000;0.1340401620
530.0000000000;0.1333902627
530.5000000000;0.1329298466
531.0000000000;0.1323356926
531.5000000000;0.1315311044
532.0000000000;0.1308955550
532.5000000000;0.1304211915
533.0000000000;0.1299213767
533.5000000000;0.1293955594
534.0000000000;0.1288433522
534.5000000000;0.1282296777
535.0000000000;0.1276195794
535.5000000000;0.1270845830
536.0000000000;0.1265369654
536.5000000000;0.1259488463
537.0000000000;0.1254035980
537.5000000000;0.1248981804
538.0000000000;0.1243944466
538.5000000000;0.1238944083
539.0000000000;0.1234023198
539.5000000000;0.1229142621
540.0000000000;0.1223695800
540.5000000000;0.1217373237
541.0000000000;0.1211339533
541.5000000000;0.1206282228
542.0000000000;0.1202031448
542.5000000000;0.1197616309
543.0000000000;0.1192115247
543.5000000000;0.1185926348
544.0000000000;0.1179999411
544.5000000000;0.1175172254
545.0000000000;0.1170622706
545.5000000000;0.1165459752
546.0000000000;0.1160169616
546.5000000000;0.1155117601
547.0000000000;0.1150341704
547.5000000000;0.1146021187
548.0000000000;0.1142171174
548.5000000000;0.1138278097
549.0000000000;0.1133366600
549.5000000000;0.1126748919
550.0000000000;0.1120646298
550.5000000000;0.1116300076
551.0000000000;0.1111365259
551.5000000000;0.1105805263
552.0000000000;0.1101275980
552.5000000000;0.1096515954
553.0000000000;0.1090992168
553.5000000000;0.1087203100
554.0000000000;0.1084320247
554.5000000000;0.1079563797
555.0000000000;0.1074125543
555.5000000000;0.1069500446
556.0000000000;0.1065444723
556.5000000000;0.1061087027
557.0000000000;0.1055828258
557.5000000000;0.1051226482
558.0000000000;0.1047591418
558.5000000000;0.1042701155
559.0000000000;0.1036930159
559.5000000000;0.1032063514
560.0000000000;0.1028190553
560.5000000000;0.1024508402
561.0000000000;0.1019825414
561.5000000000;0.1015041471
562.0000000000;0.1011414826
562.5000000000;0.1007375717
563.0000000000;0.1002220884
563.5000000000;0.0997036248
564.0000000000;0.0992618203
564.5000000000;0.0989068896
565.0000000000;0.0985015556
565.5000000000;0.0980023518
566.0000000000;0.0975012556
566.5000000000;0.0970447138
567.0000000000;0.0966312662
567.5000000000;0.0961809382
568.0000000000;0.0957264304
568.5000000000;0.0954528749
569.0000000000;0.0954441801
569.5000000000;0.0955374911
570.0000000000;0.0951716378
570.5000000000;0.0945382863
571.0000000000;0.0945549980
571.5000000000;0.0953190848
572.0000000000;0.0958402082
572.5000000000;0.0947946757
573.0000000000;0.0929969996
573.5000000000;0.0922114551
574.0000000000;0.0922344923
574.5000000000;0.0923883617
575.0000000000;0.0922685936
575.5000000000;0.0919191912
576.0000000000;0.0915613398
576.5000000000;0.0907738134
577.0000000000;0.0897710398
577.5000000000;0.0899179727
578.0000000000;0.0903834030
578.5000000000;0.0895212814
579.0000000000;0.0880602822
579.5000000000;0.0871638358
580.0000000000;0.0873802677
580.5000000000;0.0880140588
581.0000000000;0.0881672576
581.5000000000;0.0886324570
582.0000000000;0.0892356187
582.5000000000;0.0886002705
583.0000000000;0.0872323811
583.5000000000;0.0865779221
584.0000000000;0.0867340267
584.5000000000;0.0870659128
585.0000000000;0.0867908746
585.5000000000;0.0861721411
586.0000000000;0.0856997818
586.5000000000;0.0852575302
587.0000000000;0.0848563835
587.5000000000;0.0846907198
588.0000000000;0.0846667811
588.5000000000;0.0845512450
589.0000000000;0.0840515271
589.5000000000;0.0832584873
590.0000000000;0.0826357678
590.5000000000;0.0822972059
591.0000000000;0.0821258724
591.5000000000;0.0819035023
592.0000000000;0.0816020891
592.5000000000;0.0813465118
593.0000000000;0.0811981261
593.5000000000;0.0810268968
594.0000000000;0.0805144757
594.5000000000;0.0800041780
595.0000000000;0.0799642354
595.5000000000;0.0797599405
596.0000000000;0.0791170225
596.5000000000;0.0786038116
597.0000000000;0.0783551261
597.5000000000;0.0781524032
598.0000000000;0.0777153149
598.5000000000;0.0771022066
599.0000000000;0.0767410472
599.5000000000;0.0764879212
600.0000000000;0.0761162117
600.5000000000;0.0759432167
601.0000000000;0.0759669319
601.5000000000;0.0758179799
602.0000000000;0.0754059330
602.5000000000;0.0748857781
603.0000000000;0.0746606961
603.5000000000;0.0746210068
604.0000000000;0.0743106306
604.5000000000;0.0738393590
605.0000000000;0.0734512806
605.5000000000;0.0731537864
606.0000000000;0.0729793310
606.5000000000;0.0729633644
607.0000000000;0.0728590339
607.5000000000;0.0725850239
608.0000000000;0.0724136978
608.5000000000;0.0722757280
609.0000000000;0.0720066577
609.5000000000;0.0719343424
610.0000000000;0.0720721856
610.5000000000;0.0719578266
611.0000000000;0.0717204213
611.5000000000;0.0716462657
612.0000000000;0.0715566352
612.5000000000;0.0713947490
613.0000000000;0.0713118464
613.5000000000;0.0712946653
614.0000000000;0.0712478608
614.5000000000;0.0710696131
615.0000000000;0.0708563253
615.5000000000;0.0708230957
616.0000000000;0.0707219839
616.5000000000;0.0703874379
617.0000000000;0.0701467097
617.5000000000;0.0700898543
618.0000000000;0.0700712427
618.5000000000;0.0700160488
619.0000000000;0.0699357167
619.5000000000;0.0699288025
620.0000000000;0.0699073300
620.5000000000;0.0697131902
621.0000000000;0.0693757161
621.5000000000;0.0690775216
622.0000000000;0.0690729842
622.5000000000;0.0691430345
623.0000000000;0.0689886510
623.5000000000;0.0687608793
624.0000000000;0.0685483664
624.5000000000;0.0682893991
625.0000000000;0.0679616630
625.5000000000;0.0676185340
626.0000000000;0.0674280003
626.5000000000;0.0673362538
627.0000000000;0.0671390519
627.5000000000;0.0669784322
628.0000000000;0.0669150576
628.5000000000;0.0666611195
629.0000000000;0.0663219541
629.5000000000;0.0661934316
630.0000000000;0.0660513863
630.5000000000;0.0657355413
631.0000000000;0.0653986484
631.5000000000;0.0651290715
632.0000000000;0.0649394915
632.5000000000;0.0647911951
633.0000000000;0.0646377951
633.5000000000;0.0644408986
634.0000000000;0.0641978532
634.5000000000;0.0639502183
635.0000000000;0.0638056099
635.5000000000;0.0637429357
636.0000000000;0.0636260584
636.5000000000;0.0634711310
637.0000000000;0.0633297637
637.5000000000;0.0632047430
638.0000000000;0.0630552471
638.5000000000;0.0628289208
639.0000000000;0.0625798479
639.5000000000;0.0623831674
640.0000000000;0.0622813143
640.5000000000;0.0621929243
641.0000000000;0.0620149933
641.5000000000;0.0618519671
642.0000000000;0.0617503375
642.5000000000;0.0616274811
643.0000000000;0.0615435392
643.5000000000;0.0615473241
644.0000000000;0.0614463873
644.5000000000;0.0612294152
645.0000000000;0.0610934123
645.5000000000;0.0610204041
646.0000000000;0.0609366447
646.5000000000;0.0608490929
647.0000000000;0.0607434213
647.5000000000;0.0605988614
648.0000000000;0.0604987815
648.5000000000;0.0604704395
649.0000000000;0.0603977405
649.5000000000;0.0602762476
650.0000000000;0.0601625144
650.5000000000;0.0600317158
651.0000000000;0.0599044673
651.5000000000;0.0598690808
652.0000000000;0.0598397925
652.5000000000;0.0596941300
653.0000000000;0.0594735667
653.5000000000;0.0593634732
654.0000000000;0.0594906695
654.5000000000;0.0587970726
655.0000000000;0.0575038381
655.5000000000;0.0591334999
656.0000000000;0.0611150749
656.5000000000;0.0636667088
657.0000000000;0.0653137639
657.5000000000;0.0605694540
658.0000000000;0.0574702248
658.5000000000;0.0580277406
659.0000000000;0.0578826405
659.5000000000;0.0573706105
660.0000000000;0.0571774691
660.5000000000;0.0570122376
661.0000000000;0.0568316579
661.5000000000;0.0566795245
662.0000000000;0.0564184301
662.5000000000;0.0561132655
663.0000000000;0.0559927113
663.5000000000;0.0558735989
664.0000000000;0.0555957034
664.5000000000;0.0553542078
665.0000000000;0.0551744029
665.5000000000;0.0549333617
666.0000000000;0.0546016656
666.5000000000;0.0542375222
667.0000000000;0.0539802127
667.5000000000;0.0538169518
668.0000000000;0.0536546260
668.5000000000;0.0534546785
669.0000000000;0.0532410033
669.5000000000;0.0530782528
670.0000000000;0.0528990701
670.5000000000;0.0526467599
671.0000000000;0.0524273887
671.5000000000;0.0522448197
672.0000000000;0.0520160794
672.5000000000;0.0518013388
673.0000000000;0.0516380072
673.5000000000;0.0514457263
674.0000000000;0.0512200817
674.5000000000;0.0510035008
675.0000000000;0.0507915132
675.5000000000;0.0506004840
676.0000000000;0.0504729189
676.5000000000;0.0503220409
677.0000000000;0.0500707887
677.5000000000;0.0498457216
678.0000000000;0.0496859401
678.5000000000;0.0495176353
679.0000000000;0.0493373834
679.5000000000;0.0491797440
680.0000000000;0.0490847602
680.5000000000;0.0489696600
681.0000000000;0.0487269014
681.5000000000;0.0485279933
682.0000000000;0.0484419391
682.5000000000;0.0482951701
683.0000000000;0.0480809994
683.5000000000;0.0478898138
684.0000000000;0.0477824062
684.5000000000;0.0477856360
685.0000000000;0.0478678495
685.5000000000;0.0477999598
686.0000000000;0.0474601686
686.5000000000;0.0471281186
687.0000000000;0.0469481461
687.5000000000;0.0468795747
688.0000000000;0.0467803590
688.5000000000;0.0466002189
689.0000000000;0.0464682765
689.5000000000;0.0463922806
690.0000000000;0.0463058650
690.5000000000;0.0461761504
691.0000000000;0.0460357256
691.5000000000;0.0459615141
692.0000000000;0.0458589494
692.5000000000;0.0456714965
693.0000000000;0.0455902070
693.5000000000;0.0455499180
694.0000000000;0.0453183018
694.5000000000;0.0450651534
695.0000000000;0.0449284874
695.5000000000;0.0447842330
696.0000000000;0.0446093753
696.5000000000;0.0444613211
697.0000000000;0.0443859026
697.5000000000;0.0443196669
698.0000000000;0.0441051833
698.5000000000;0.0438234583
699.0000000000;0.0436010770
699.5000000000;0.0433979183
700.0000000000;0.0432135798
700.5000000000;0.0430798866
701.0000000000;0.0428974815
701.5000000000;0.0426433310
702.0000000000;0.0424781032
702.5000000000;0.0423698388
703.0000000000;0.0421895236
703.5000000000;0.0419357084
704.0000000000;0.0416814163
704.5000000000;0.0415231697
705.0000000000;0.0413474776
705.5000000000;0.0410726219
706.0000000000;0.0409046896
706.5000000000;0.0408476330
707.0000000000;0.0407288559
707.5000000000;0.0405433439
708.0000000000;0.0403162837
708.5000000000;0.0400411896
709.0000000000;0.0397371165
709.5000000000;0.0394442305
710.0000000000;0.0392301753
710.5000000000;0.0390766226
711.0000000000;0.0388707668
711.5000000000;0.0386219621
712.0000000000;0.0383871980
712.5000000000;0.0381984301
713.0000000000;0.0380506627
713.5000000000;0.0379045121
714.0000000000;0.0376868322
714.5000000000;0.0374210998
715.0000000000;0.0372712538
715.5000000000;0.0371361896
716.0000000000;0.0368512385
716.5000000000;0.0365512930
717.0000000000;0.0363088921
717.5000000000;0.0360739343
718.0000000000;0.0358807407
718.5000000000;0.0357401855
719.0000000000;0.0355506130
719.5000000000;0.0352885574
720.0000000000;0.0350033976
720.5000000000;0.0347701795
721.0000000000;0.0345965214
721.5000000000;0.0343903489
722.0000000000;0.0341520160
722.5000000000;0.0339270309
723.0000000000;0.0337409750
723.5000000000;0.0335970931
724.0000000000;0.0334705003
724.5000000000;0.0333126783
725.0000000000;0.0331318565
725.5000000000;0.0330369323
726.0000000000;0.0329654552
726.5000000000;0.0327889286
727.0000000000;0.0325860903
727.5000000000;0.0323945880
728.0000000000;0.0321512446
728.5000000000;0.0319355503
729.0000000000;0.0318159647
729.5000000000;0.0316728614
730.0000000000;0.0315077752
730.5000000000;0.0314258710
731.0000000000;0.0313864015
731.5000000000;0.0312902480
732.0000000000;0.0310369451
732.5000000000;0.0307281855
733.0000000000;0.0305310003
733.5000000000;0.0304232016
734.0000000000;0.0303664580
734.5000000000;0.0303446539
735.0000000000;0.0303295162
735.5000000000;0.0302550495
736.0000000000;0.0300063621
736.5000000000;0.0297353137
737.0000000000;0.0296762548
737.5000000000;0.0295474138
738.0000000000;0.0292358976
738.5000000000;0.0290310476
739.0000000000;0.0290146917
739.5000000000;0.0291023217
740.0000000000;0.0291172508
740.5000000000;0.0289926529
741.0000000000;0.0287841409
741.5000000000;0.0286093336
742.0000000000;0.0285141021
742.5000000000;0.0283895582
743.0000000000;0.0282288659
743.5000000000;0.0280981958
744.0000000000;0.0280500259
744.5000000000;0.0280214176
745.0000000000;0.0278667137
745.5000000000;0.0277127922
746.0000000000;0.0276669934
746.5000000000;0.0275728628
747.0000000000;0.0274755731
747.5000000000;0.0275084563
748.0000000000;0.0274611861
748.5000000000;0.0272594355
749.0000000000;0.0271093324
749.5000000000;0.0270248819
750.0000000000;0.0269573089
750.5000000000;0.0269571021
751.0000000000;0.0269402582
751.5000000000;0.0267456956
752.0000000000;0.0265056323
752.5000000000;0.0263988692
753.0000000000;0.0264988095
753.5000000000;0.0266012475
754.0000000000;0.0264672954
754.5000000000;0.0261992365
755.0000000000;0.0259460881
755.5000000000;0.0258230045
756.0000000000;0.0258435812
756.5000000000;0.0259339865
757.0000000000;0.0259417184
757.5000000000;0.0258421339
758.0000000000;0.0257030074
758.5000000000;0.0255889781
759.0000000000;0.0254884977
759.5000000000;0.0253151506
760.0000000000;0.0250964258
760.5000000000;0.0249061156
761.0000000000;0.0248034876
761.5000000000;0.0246487930
762.0000000000;0.0242687371
762.5000000000;0.0240447950
763.0000000000;0.0241196305
763.5000000000;0.0241137277
764.0000000000;0.0239759404
764.5000000000;0.0238139089
765.0000000000;0.0236653592
765.5000000000;0.0234970916
766.0000000000;0.0232464708
766.5000000000;0.0229532067
767.0000000000;0.0227154344
767.5000000000;0.0226608142
768.0000000000;0.0227564014
768.5000000000;0.0228701234
769.0000000000;0.0228666123
769.5000000000;0.0226551145
770.0000000000;0.0222315155
770.5000000000;0.0218716133
771.0000000000;0.0217549931
771.5000000000;0.0216835607
772.0000000000;0.0214962736
772.5000000000;0.0211711973
773.0000000000;0.0209615435
773.5000000000;0.0209194794
774.0000000000;0.0208379384
774.5000000000;0.0206507202
775.0000000000;0.0204051845
775.5000000000;0.0202445555
776.0000000000;0.0201769490
776.5000000000;0.0201146770
777.0000000000;0.0200053155
777.5000000000;0.0198369510
778.0000000000;0.0196479633
778.5000000000;0.0195485428
779.0000000000;0.0195885133
779.5000000000;0.0196291301
780.0000000000;0.0195704047
780.5000000000;0.0193938278
781.0000000000;0.0192230940
781.5000000000;0.0191203840
782.0000000000;0.0190187115
782.5000000000;0.0189264696
783.0000000000;0.0188526455
783.5000000000;0.0187148806
784.0000000000;0.0185032357
784.5000000000;0.0182853602
785.0000000000;0.0181671623
785.5000000000;0.0181343462
786.0000000000;0.0180073027
786.5000000000;0.0178371351
787.0000000000;0.0177309513
787.5000000000;0.0176226944
788.0000000000;0.0175605901
788.5000000000;0.0176459067
789.0000000000;0.0176463798
789.5000000000;0.0174657386
790.0000000000;0.0173314381
790.5000000000;0.0172348395
791.0000000000;0.0170902871
791.5000000000;0.0169795807
792.0000000000;0.0168828089
792.5000000000;0.0167085063
793.0000000000;0.0165909603
793.5000000000;0.0166435335
794.0000000000;0.0168181881
794.5000000000;0.0169025660
795.0000000000;0.0167303346
795.5000000000;0.0164803695
796.0000000000;0.0162654277
796.5000000000;0.0160921570
797.0000000000;0.0160266701
797.5000000000;0.0160633288
798.0000000000;0.0160667151
798.5000000000;0.0160190482
799.0000000000;0.0159597825
799.5000000000;0.0158832800
800.0000000000;0.0157952886
800.5000000000;0.0157190878
801.0000000000;0.0156672411
801.5000000000;0.0156333633
802.0000000000;0.0155830961
802.5000000000;0.0154538266
803.0000000000;0.0152506363
803.5000000000;0.0151955681
804.0000000000;0.0152327297
804.5000000000;0.0150899393
805.0000000000;0.0149549842
805.5000000000;0.0150048165
806.0000000000;0.0151389632
806.5000000000;0.0151859950
807.0000000000;0.0150372898
807.5000000000;0.0148387039
808.0000000000;0.0147339646
808.5000000000;0.0147636440
809.0000000000;0.0146971289
809.5000000000;0.0144674778
810.0000000000;0.0143858548
810.5000000000;0.0144570107
811.0000000000;0.0145091815
811.5000000000;0.0144392475
812.0000000000;0.0142902387
812.5000000000;0.0142017631
813.0000000000;0.0141544510
813.5000000000;0.0141325258
814.0000000000;0.0141847441
814.5000000000;0.0141646350
815.0000000000;0.0139709339
815.5000000000;0.0139097739
816.0000000000;0.0139788566
816.5000000000;0.0139071550
817.0000000000;0.0137812616
817.5000000000;0.0136889582
818.0000000000;0.0135674337
818.5000000000;0.0134912794
819.0000000000;0.0135210799
819.5000000000;0.0134917516
820.0000000000;0.0134428684
820.5000000000;0.0135357827
821.0000000000;0.0135444235
821.5000000000;0.0133838374
822.0000000000;0.0132912602
822.5000000000;0.0132220788
823.0000000000;0.0130970078
823.5000000000;0.0131042777
824.0000000000;0.0131660048
824.5000000000;0.0130519727
825.0000000000;0.0129352333
825.5000000000;0.0129145877
826.0000000000;0.0128687778
826.5000000000;0.0128369108
827.0000000000;0.0128644621
827.5000000000;0.0128395427
828.0000000000;0.0127405403
828.5000000000;0.0126292193
829.0000000000;0.0125643117
829.5000000000;0.0125043010
830.0000000000;0.0123266494
830.5000000000;0.0121961096
831.0000000000;0.0122231441
831.5000000000;0.0121795526
832.0000000000;0.0121251922
832.5000000000;0.0122317094
833.0000000000;0.0122773377
833.5000000000;0.0121818576
834.0000000000;0.0121096307
834.5000000000;0.0121591110
835.0000000000;0.0122671975
835.5000000000;0.0121656945
836.0000000000;0.0119596878
836.5000000000;0.0118909655
837.0000000000;0.0118506644
837.5000000000;0.0117903277
838.0000000000;0.0117744533
838.5000000000;0.0117790885
839.0000000000;0.0117580732
839.5000000000;0.0116883740
840.0000000000;0.0116187511
840.5000000000;0.0116155678
841.0000000000;0.0116836950
841.5000000000;0.0116975410
842.0000000000;0.0115198726
842.5000000000;0.0114386696
843.0000000000;0.0115426490
843.5000000000;0.0115098879
844.0000000000;0.0113932341
844.5000000000;0.0113477698
845.0000000000;0.0113189351
845.5000000000;0.0112992423
846.0000000000;0.0113124792
846.5000000000;0.0112798540
847.0000000000;0.0112077435
847.5000000000;0.0112108383
848.0000000000;0.0112137338
848.5000000000;0.0111667300
849.0000000000;0.0112137962
849.5000000000;0.0113106379
850.0000000000;0.0113195851
850.5000000000;0.0112574678
851.0000000000;0.0112040257
851.5000000000;0.0112376828
852.0000000000;0.0112547567
852.5000000000;0.0112378523
853.0000000000;0.0113718892
853.5000000000;0.0114866281
854.0000000000;0.0113816056
854.5000000000;0.0113246208
855.0000000000;0.0113765113
855.5000000000;0.0113589838
856.0000000000;0.0112075852
856.5000000000;0.0110164694
857.0000000000;0.0110063702
857.5000000000;0.0110916747
858.0000000000;0.0111135971
858.5000000000;0.0110824723
859.0000000000;0.0110697579
859.5000000000;0.0111203883
860.0000000000;0.0110890390
860.5000000000;0.0109946923
861.0000000000;0.0110394526
861.5000000000;0.0110744191
862.0000000000;0.0109542757
862.5000000000;0.0107972044
863.0000000000;0.0108167659
863.5000000000;0.0110705020
864.0000000000;0.0110796532
864.5000000000;0.0108730737
865.0000000000;0.0109071732
865.5000000000;0.0109576350
866.0000000000;0.0108663691
866.5000000000;0.0108516021
867.0000000000;0.0109123103
867.5000000000;0.0109523926
868.0000000000;0.0109357676
868.5000000000;0.0108803269
869.0000000000;0.0108235367
869.5000000000;0.0107512809
870.0000000000;0.0107144201
870.5000000000;0.0108091831
871.0000000000;0.0108738402
871.5000000000;0.0107833445
872.0000000000;0.0106601566
872.5000000000;0.0106716529
873.0000000000;0.0108458456
873.5000000000;0.0108192870
874.0000000000;0.0106392149
874.5000000000;0.0106647965
875.0000000000;0.0106878523
875.5000000000;0.0105958702
876.0000000000;0.0106129041
876.5000000000;0.0106992396
877.0000000000;0.0107265217
877.5000000000;0.0106752766
878.0000000000;0.0106258374
878.5000000000;0.0106755747
879.0000000000;0.0107740480
879.5000000000;0.0108105391
880.0000000000;0.0106789852
880.5000000000;0.0104719782
881.0000000000;0.0103296787
881.5000000000;0.0103289550
882.0000000000;0.0103963334
882.5000000000;0.0104144197
883.0000000000;0.0103648361
883.5000000000;0.0103436206
884.0000000000;0.0104481038
884.5000000000;0.0104669891
885.0000000000;0.0103532942
885.5000000000;0.0103310207
886.0000000000;0.0103812600
886.5000000000;0.0103961285
887.0000000000;0.0103147756
887.5000000000;0.0102719655
888.0000000000;0.0103684450
888.5000000000;0.0102883596
889.0000000000;0.0101441890
889.5000000000;0.0103341853
890.0000000000;0.0104055349
890.5000000000;0.0101289982
891.0000000000;0.0098989215
891.5000000000;0.0099030025
892.0000000000;0.0100629600
892.5000000000;0.0100243352
893.0000000000;0.0098143630
893.5000000000;0.0097019430
894.0000000000;0.0097974623
894.5000000000;0.0099748857
895.0000000000;0.0099713774
895.5000000000;0.0098807830
896.0000000000;0.0098214112
896.5000000000;0.0097733354
897.0000000000;0.0097145140
897.5000000000;0.0096676499
898.0000000000;0.0097313458
898.5000000000;0.0098208301
899.0000000000;0.0097971605
899.5000000000;0.0098103527
900.0000000000;0.0098118801
900.5000000000;0.0095562628
901.0000000000;0.0092742639
901.5000000000;0.0092154639
902.0000000000;0.0093688099
902.5000000000;0.0094663082
903.0000000000;0.0093270615
903.5000000000;0.0092551326
904.0000000000;0.0093229171
904.5000000000;0.0093957670
905.0000000000;0.0094378386
905.5000000000;0.0093705300
906.0000000000;0.0091217980
906.5000000000;0.0090660229
907.0000000000;0.0092658550
907.5000000000;0.0091166124
908.0000000000;0.0088127805
908.5000000000;0.0087963864
909.0000000000;0.0090099666
909.5000000000;0.0090898648
910.0000000000;0.0087476196
910.5000000000;0.0085950382
911.0000000000;0.0088394843
911.5000000000;0.0090486193
912.0000000000;0.0089767128
912.5000000000;0.0086808391
913.0000000000;0.0085461019
913.5000000000;0.0085955188
914.0000000000;0.0086686052
914.5000000000;0.0086675799
915.0000000000;0.0086388802
915.5000000000;0.0086817564
916.0000000000;0.0087276427
916.5000000000;0.0086841527
917.0000000000;0.0085245725
917.5000000000;0.0084901694
918.0000000000;0.0085896598
918.5000000000;0.0084004030
919.0000000000;0.0081346259
919.5000000000;0.0080788070
920.0000000000;0.0079199374
920.5000000000;0.0077777673
921.0000000000;0.0079608709
921.5000000000;0.0081588877
922.0000000000;0.0081832698
922.5000000000;0.0080955531
923.0000000000;0.0078769382
923.5000000000;0.0075717927
924.0000000000;0.0073572048
924.5000000000;0.0073411423
925.0000000000;0.0074666119
925.5000000000;0.0074457671
926.0000000000;0.0073659611
926.5000000000;0.0074622282
927.0000000000;0.0075823157
927.5000000000;0.0074753403
928.0000000000;0.0070517431
928.5000000000;0.0070377192
929.0000000000;0.0074474402
929.5000000000;0.0072394307
930.0000000000;0.0069270092
930.5000000000;0.0070184325
931.0000000000;0.0067924890
931.5000000000;0.0064976993
932.0000000000;0.0066305506
932.5000000000;0.0065793991
933.0000000000;0.0064095282
933.5000000000;0.0066423207
934.0000000000;0.0066718576
934.5000000000;0.0063998527
935.0000000000;0.0064881234
935.5000000000;0.0065016374
936.0000000000;0.0060816896
936.5000000000;0.0056955460
937.0000000000;0.0056621004
937.5000000000;0.0059600519
938.0000000000;0.0060892911
938.5000000000;0.0059931134
939.0000000000;0.0059110657
939.5000000000;0.0058047166
940.0000000000;0.0056275870
940.5000000000;0.0054227314
941.0000000000;0.0053973794
941.5000000000;0.0055353702
942.0000000000;0.0054789167
942.5000000000;0.0052131321
943.0000000000;0.0049873576
943.5000000000;0.0051662675
944.0000000000;0.0052991146
944.5000000000;0.0048947209
945.0000000000;0.0047452087
945.5000000000;0.0048226807
946.0000000000;0.0044717966
946.5000000000;0.0041542556
947.0000000000;0.0041669710
947.5000000000;0.0042712567
948.0000000000;0.0042142808
948.5000000000;0.0039921990
949.0000000000;0.0039357352
949.5000000000;0.0038600466
950.0000000000;0.0035992975
950.5000000000;0.0036128189
951.0000000000;0.0038166223
951.5000000000;0.0038285402
952.0000000000;0.0037210307
952.5000000000;0.0034081875
953.0000000000;0.0027503255
953.5000000000;0.0024201716
954.0000000000;0.0025949664
954.5000000000;0.0026145703
955.0000000000;0.0025436967
955.5000000000;0.0025058219
956.0000000000;0.0022304479
956.5000000000;0.0019214189
957.0000000000;0.0018391833
957.5000000000;0.0017111582
958.0000000000;0.0014926563
958.5000000000;0.0013169356
959.0000000000;0.0011541855
959.5000000000;0.0011525827
960.0000000000;0.0014952149
960.5000000000;0.0015592789
961.0000000000;0.0011142500
961.5000000000;0.0007434195
962.0000000000;0.0008156574
962.5000000000;0.0012029551
963.0000000000;0.0011771040
963.5000000000;0.0008029038
964.0000000000;0.0005211233
964.5000000000;0.0005023606
965.0000000000;0.0005110899
965.5000000000;0.0002539157
966.0000000000;0.0001389273
966.5000000000;0.0004679951
967.0000000000;0.0011377099
967.5000000000;0.0013552783
968.0000000000;0.0008224613
968.5000000000;0.0002018764
969.0000000000;0.0005027065
969.5000000000;0.0015832591
970.0000000000;0.0014268185
970.5000000000;0.0008929419
971.0000000000;0.0012806408
971.5000000000;0.0011927049
972.0000000000;0.0008090790
972.5000000000;0.0010573647
973.0000000000;0.0008775938
973.5000000000;0.0003752398
974.0000000000;0.0006719320
974.5000000000;0.0010038700
975.0000000000;0.0010291481
975.5000000000;0.0013422047
976.0000000000;0.0012587659
976.5000000000;0.0005263178
977.0000000000;0.0003055284
977.5000000000;0.0011269521
978.0000000000;0.0024203593
978.5000000000;0.0023169667
979.0000000000;0.0014277005
979.5000000000;0.0013218733
980.0000000000;0.0014416747
980.5000000000;0.0012794739
981.0000000000;0.0009330345
981.5000000000;0.0013651816
982.0000000000;0.0022082371
982.5000000000;0.0018885977
983.0000000000;0.0012080979
983.5000000000;0.0011538684
984.0000000000;0.0017457835
984.5000000000;0.0021437809
985.0000000000;0.0018875331
985.5000000000;0.0017646662
986.0000000000;0.0015650043
986.5000000000;0.0010808186
987.0000000000;0.0014711050
987.5000000000;0.0021914765
988.0000000000;0.0019611469
988.5000000000;0.0015262910
989.0000000000;0.0014673105
989.5000000000;0.0017138857
990.0000000000;0.0016988362
990.5000000000;0.0015540622
991.0000000000;0.0020638672
991.5000000000;0.0022545147
992.0000000000;0.0017848494
992.5000000000;0.0019883863
993.0000000000;0.0024808631
993.5000000000;0.0023698800
994.0000000000;0.0015584819
994.5000000000;0.0012098135
995.0000000000;0.0022253024
995.5000000000;0.0031685398
996.0000000000;0.0034222093
996.5000000000;0.0033149647
997.0000000000;0.0032874292
997.5000000000;0.0029001266
998.0000000000;0.0016075145
998.5000000000;0.0019152730
999.0000000000;0.0035223679
999.5000000000;0.0028216953
1000.0000000000;0.0019943228
1000.5000000000;0.0027864855
1001.0000000000;0.0033070694
1001.5000000000;0.0029355935
1002.0000000000;0.0021684768
1002.5000000000;0.0021227696
1003.0000000000;0.0023854487
1003.5000000000;0.0021155572
1004.0000000000;0.0016828049
1004.5000000000;0.0017686614
1005.0000000000;0.0026224763
1005.5000000000;0.0029554365
1006.0000000000;0.0027101145
1006.5000000000;0.0028720764
1007.0000000000;0.0031134675
1007.5000000000;0.0031810231
1008.0000000000;0.0031900343
1008.5000000000;0.0028076901
1009.0000000000;0.0023762872
1009.5000000000;0.0030340597
1010.0000000000;0.0036494196
1010.5000000000;0.0032207237
1011.0000000000;0.0026068273
1011.5000000000;0.0026212684
1012.0000000000;0.0032763844
1012.5000000000;0.0032405606
1013.0000000000;0.0023356732
1013.5000000000;0.0015938287
1014.0000000000;0.0027510633
1014.5000000000;0.0042058188
1015.0000000000;0.0032696025
1015.5000000000;0.0026732506
1016.0000000000;0.0027749885
1016.5000000000;0.0015536207
1017.0000000000;0.0014710368
1017.5000000000;0.0027283255
1018.0000000000;0.0023757543
1018.5000000000;0.0027286166
1019.0000000000;0.0045855674
1019.5000000000;0.0044154762
