182.5000000000;0.9192351103
183.0000000000;1.0028306246
183.5000000000;1.0336198807
184.0000000000;1.0184495449
184.5000000000;1.0385916233
185.0000000000;1.1268305779
185.5000000000;1.2378463745
186.0000000000;1.2903428078
186.5000000000;1.3925985098
187.0000000000;1.6850875616
187.5000000000;1.9250897169
188.0000000000;2.0125815868
188.5000000000;2.1318085194
189.0000000000;2.3244137764
189.5000000000;2.4557316303
190.0000000000;2.5210461617
190.5000000000;2.5748651028
191.0000000000;2.6563227177
191.5000000000;2.7602331638
192.0000000000;2.7962660789
192.5000000000;2.7567846775
193.0000000000;2.7534883022
193.5000000000;2.7956988811
194.0000000000;2.8322699070
194.5000000000;2.8526823521
195.0000000000;2.8632650375
195.5000000000;2.8916330338
196.0000000000;2.9314916134
196.5000000000;2.9458596706
197.0000000000;2.9307630062
197.5000000000;2.9068832397
198.0000000000;2.9140605927
198.5000000000;2.9610142708
199.0000000000;3.0195081234
199.5000000000;3.0792815685
200.0000000000;3.1356322765
200.5000000000;3.1429786682
201.0000000000;3.1111440659
201.5000000000;3.1393060684
202.0000000000;3.1993739605
202.5000000000;3.1728341579
203.0000000000;3.1520280838
203.5000000000;3.2165968418
204.0000000000;3.2459876537
204.5000000000;3.2021353245
205.0000000000;3.2062702179
205.5000000000;3.2363035679
206.0000000000;3.2148489952
206.5000000000;3.2083561420
207.0000000000;3.2459993362
207.5000000000;3.2223975658
208.0000000000;3.1681261063
208.5000000000;3.1912074089
209.0000000000;3.2101163864
209.5000000000;3.1451492310
210.0000000000;3.1149959564
210.5000000000;3.1517248154
211.0000000000;3.1941392422
211.5000000000;3.1834268570
212.0000000000;3.1171412468
212.5000000000;3.1011185646
213.0000000000;3.1534030437
213.5000000000;3.1662688255
214.0000000000;3.1527159214
214.5000000000;3.1963703632
215.0000000000;3.2454767227
215.5000000000;3.2411992550
216.0000000000;3.2298543453
216.5000000000;3.2289769650
217.0000000000;3.2263460159
217.5000000000;3.2479960918
218.0000000000;3.3083760738
218.5000000000;3.3293335438
219.0000000000;3.2878701687
219.5000000000;3.2566540241
220.0000000000;3.2677845955
220.5000000000;3.3259651661
221.0000000000;3.3656940460
221.5000000000;3.3444879055
222.0000000000;3.3261613846
222.5000000000;3.3349802494
223.0000000000;3.3588199615
223.5000000000;3.3636751175
224.0000000000;3.3252956867
224.5000000000;3.2716670036
225.0000000000;3.2425167561
225.5000000000;3.2752475739
226.0000000000;3.3134040833
226.5000000000;3.2712378502
227.0000000000;3.2331335545
227.5000000000;3.2430076599
228.0000000000;3.2526223660
228.5000000000;3.2335693836
229.0000000000;3.1913597584
229.5000000000;3.1711697578
230.0000000000;3.1879544258
230.5000000000;3.1844286919
231.0000000000;3.1659429073
231.5000000000;3.1920337677
232.0000000000;3.2298238277
232.5000000000;3.2234179974
233.0000000000;3.2022304535
233.5000000000;3.1941931248
234.0000000000;3.2037014961
234.5000000000;3.2100300789
235.0000000000;3.1928169727
235.5000000000;3.1862897873
236.0000000000;3.2123765945
236.5000000000;3.2573699951
237.0000000000;3.2782034874
237.5000000000;3.2331905365
238.0000000000;3.1951031685
238.5000000000;3.2161576748
239.0000000000;3.2813911438
239.5000000000;3.3439216614
240.0000000000;3.3240942955
240.5000000000;3.2690851688
241.0000000000;3.2470998764
241.5000000000;3.2592334747
242.0000000000;3.2817001343
242.5000000000;3.2671282291
243.0000000000;3.2313821316
243.5000000000;3.2130019665
244.0000000000;3.2036106586
244.5000000000;3.1846897602
245.0000000000;3.1402597427
245.5000000000;3.0825486183
246.0000000000;3.0345220566
246.5000000000;2.9993033409
247.0000000000;2.9712841511
247.5000000000;2.9370048046
248.0000000000;2.8963358402
248.5000000000;2.8612024784
249.0000000000;2.8361172676
249.5000000000;2.8193838596
250.0000000000;2.7989232540
250.5000000000;2.7742629051
251.0000000000;2.7626469135
251.5000000000;2.7594251633
252.0000000000;2.7482647896
252.5000000000;2.7355625629
253.0000000000;2.7317707539
253.5000000000;2.7407352924
254.0000000000;2.7499213219
254.5000000000;2.7363529205
255.0000000000;2.7230520248
255.5000000000;2.7334506512
256.0000000000;2.7406373024
256.5000000000;2.7334430218
257.0000000000;2.7323744297
257.5000000000;2.7405307293
258.0000000000;2.7524001598
258.5000000000;2.7706739902
259.0000000000;2.7883608341
259.5000000000;2.7806899548
260.0000000000;2.7662789822
260.5000000000;2.7828402519
261.0000000000;2.8109052181
261.5000000000;2.8221237659
262.0000000000;2.8163228035
262.5000000000;2.8074326515
263.0000000000;2.8149397373
263.5000000000;2.8460123539
264.0000000000;2.8919007778
264.5000000000;2.9024658203
265.0000000000;2.8755311966
265.5000000000;2.8718185425
266.0000000000;2.8887081146
266.5000000000;2.8986852169
267.0000000000;2.9045913219
267.5000000000;2.9079561234
268.0000000000;2.8987658024
268.5000000000;2.8959457874
269.0000000000;2.9271166325
269.5000000000;2.9621536732
270.0000000000;2.9697556496
270.5000000000;2.9702901840
271.0000000000;2.9733259678
271.5000000000;2.9722378254
272.0000000000;2.9672596455
272.5000000000;2.9595892429
273.0000000000;2.9451696873
273.5000000000;2.9290628433
274.0000000000;2.9259340763
274.5000000000;2.9418485165
275.0000000000;2.9706020355
275.5000000000;2.9686124325
276.0000000000;2.9305708408
276.5000000000;2.9187479019
277.0000000000;2.9281604290
277.5000000000;2.9150798321
278.0000000000;2.8861641884
278.5000000000;2.8570182323
279.0000000000;2.8290581703
279.5000000000;2.8180108070
280.0000000000;2.8447475433
280.5000000000;2.8513720036
281.0000000000;2.7959287167
281.5000000000;2.7839632034
282.0000000000;2.8231413364
282.5000000000;2.7941160202
283.0000000000;2.7481758595
283.5000000000;2.7752916813
284.0000000000;2.7987325191
284.5000000000;2.7598047256
285.0000000000;2.7134621143
285.5000000000;2.6828305721
286.0000000000;2.6653056145
286.5000000000;2.6509542465
287.0000000000;2.6411938667
287.5000000000;2.6608097553
288.0000000000;2.6887350082
288.5000000000;2.6648869514
289.0000000000;2.6283521652
289.5000000000;2.6204910278
290.0000000000;2.6112709045
290.5000000000;2.5960042477
291.0000000000;2.6015043259
291.5000000000;2.6087293625
292.0000000000;2.5902516842
292.5000000000;2.5725014210
293.0000000000;2.5766022205
293.5000000000;2.6039574146
294.0000000000;2.6237668991
294.5000000000;2.6018040180
295.0000000000;2.5969872475
295.5000000000;2.6305558681
296.0000000000;2.6211211681
296.5000000000;2.5809137821
297.0000000000;2.5812366009
297.5000000000;2.5969727039
298.0000000000;2.5949654579
298.5000000000;2.5960872173
299.0000000000;2.6051182747
299.5000000000;2.6052381992
300.0000000000;2.5991032124
300.5000000000;2.5978279114
301.0000000000;2.6102542877
301.5000000000;2.6276485920
302.0000000000;2.6217641830
302.5000000000;2.6126811504
303.0000000000;2.6302804947
303.5000000000;2.6401274204
304.0000000000;2.6226353645
304.5000000000;2.6086690426
305.0000000000;2.6059069633
305.5000000000;2.6065464020
306.0000000000;2.6132352352
306.5000000000;2.6235358715
307.0000000000;2.6180796623
307.5000000000;2.5972998142
308.0000000000;2.5791325569
308.5000000000;2.5728042126
309.0000000000;2.5766737461
309.5000000000;2.5696046352
310.0000000000;2.5499098301
310.5000000000;2.5375301838
311.0000000000;2.5307776928
311.5000000000;2.5222032070
312.0000000000;2.5193715096
312.5000000000;2.5195434093
313.0000000000;2.5037729740
313.5000000000;2.4846909046
314.0000000000;2.4820821285
314.5000000000;2.4671673775
315.0000000000;2.4299347401
315.5000000000;2.4082336426
316.0000000000;2.3996596336
316.5000000000;2.3784310818
317.0000000000;2.3590133190
317.5000000000;2.3498406410
318.0000000000;2.3211686611
318.5000000000;2.2832739353
319.0000000000;2.2743995190
319.5000000000;2.2699563503
320.0000000000;2.2392063141
320.5000000000;2.2085781097
321.0000000000;2.1895635128
321.5000000000;2.1695659161
322.0000000000;2.1480259895
322.5000000000;2.1287178993
323.0000000000;2.1074554920
323.5000000000;2.0825688839
324.0000000000;2.0579147339
324.5000000000;2.0361049175
325.0000000000;2.0180335045
325.5000000000;2.0011677742
326.0000000000;1.9829078913
326.5000000000;1.9622359276
327.0000000000;1.9394990206
327.5000000000;1.9162576199
328.0000000000;1.8959118128
328.5000000000;1.8801952600
329.0000000000;1.8659812212
329.5000000000;1.8504072428
330.0000000000;1.8321346045
330.5000000000;1.8131777048
331.0000000000;1.7963502407
331.5000000000;1.7834739685
332.0000000000;1.7717596292
332.5000000000;1.7544513941
333.0000000000;1.7372654676
333.5000000000;1.7277559042
334.0000000000;1.7180477381
334.5000000000;1.7019176483
335.0000000000;1.6809988022
335.5000000000;1.6632544994
336.0000000000;1.6560597420
336.5000000000;1.6497035027
337.0000000000;1.6377946138
337.5000000000;1.6278153658
338.0000000000;1.6206159592
338.5000000000;1.6116008759
339.0000000000;1.6002229452
339.5000000000;1.5885432959
340.0000000000;1.5809006691
340.5000000000;1.5759094954
341.0000000000;1.5676976442
341.5000000000;1.5589201450
342.0000000000;1.5533047915
342.5000000000;1.5479938984
343.0000000000;1.5409597158
343.5000000000;1.5325417519
344.0000000000;1.5250784159
344.5000000000;1.5204898119
345.0000000000;1.5160042048
345.5000000000;1.5097308159
346.0000000000;1.5025316477
346.5000000000;1.4969315529
347.0000000000;1.4946860075
347.5000000000;1.4909231663
348.0000000000;1.4837301970
348.5000000000;1.4785910845
349.0000000000;1.4764219522
349.5000000000;1.4743787050
350.0000000000;1.4698382616
350.5000000000;1.4626575708
351.0000000000;1.4571760893
351.5000000000;1.4543126822
352.0000000000;1.4517428875
352.5000000000;1.4481147528
353.0000000000;1.4431998730
353.5000000000;1.4384300709
354.0000000000;1.4347542524
354.5000000000;1.4322025776
355.0000000000;1.4294003248
355.5000000000;1.4251543283
356.0000000000;1.4206717014
356.5000000000;1.4172142744
357.0000000000;1.4153525829
357.5000000000;1.4133490324
358.0000000000;1.4090683460
358.5000000000;1.4036511183
359.0000000000;1.3983086348
359.5000000000;1.3937402964
360.0000000000;1.3907303810
360.5000000000;1.3894667625
361.0000000000;1.3875740767
361.5000000000;1.3838602304
362.0000000000;1.3798851967
362.5000000000;1.3757982254
363.0000000000;1.3708010912
363.5000000000;1.3663322926
364.0000000000;1.3627951145
364.5000000000;1.3571835756
365.0000000000;1.3504724503
365.5000000000;1.3465908766
366.0000000000;1.3436268568
366.5000000000;1.3387649059
367.0000000000;1.3326052427
367.5000000000;1.3267805576
368.0000000000;1.3231796026
368.5000000000;1.3195413351
369.0000000000;1.3131123781
369.5000000000;1.3059856892
370.0000000000;1.2997735739
370.5000000000;1.2942274809
371.0000000000;1.2889728546
371.5000000000;1.2835510969
372.0000000000;1.2772213221
372.5000000000;1.2700845003
373.0000000000;1.2635709047
373.5000000000;1.2578676939
374.0000000000;1.2521202564
374.5000000000;1.2447918653
375.0000000000;1.2360081673
375.5000000000;1.2288317680
376.0000000000;1.2228482962
376.5000000000;1.2154380083
377.0000000000;1.2074710131
377.5000000000;1.2000510693
378.0000000000;1.1920095682
378.5000000000;1.1834965944
379.0000000000;1.1760158539
379.5000000000;1.1681981087
380.0000000000;1.1587196589
380.5000000000;1.1498743296
381.0000000000;1.1423637867
381.5000000000;1.1344162226
382.0000000000;1.1256932020
382.5000000000;1.1168110371
383.0000000000;1.1076440811
383.5000000000;1.0978219509
384.0000000000;1.0880361795
384.5000000000;1.0785818100
385.0000000000;1.0691722631
385.5000000000;1.0600647926
386.0000000000;1.0510820150
386.5000000000;1.0414255857
387.0000000000;1.0314457417
387.5000000000;1.0218023062
388.0000000000;1.0118234158
388.5000000000;1.0012429953
389.0000000000;0.9908586144
389.5000000000;0.9810154438
390.0000000000;0.9718480110
390.5000000000;0.9619162679
391.0000000000;0.9506713152
391.5000000000;0.9399834871
392.0000000000;0.9303061962
392.5000000000;0.9210938215
393.0000000000;0.9114897251
393.5000000000;0.9007741213
394.0000000000;0.8899721503
394.5000000000;0.8798688054
395.0000000000;0.8698812723
395.5000000000;0.8593945503
396.0000000000;0.8486567736
396.5000000000;0.8387863636
397.0000000000;0.8296530843
397.5000000000;0.8199986815
398.0000000000;0.8099926710
398.5000000000;0.8001204729
399.0000000000;0.7900630832
399.5000000000;0.7800586224
400.0000000000;0.7711067200
400.5000000000;0.7622326612
401.0000000000;0.7523430586
401.5000000000;0.7424340844
402.0000000000;0.7330185175
402.5000000000;0.7238484621
403.0000000000;0.7148573399
403.5000000000;0.7059404254
404.0000000000;0.6969165802
404.5000000000;0.6880062222
405.0000000000;0.6796734929
405.5000000000;0.6715887785
406.0000000000;0.6631965041
406.5000000000;0.6546891928
407.0000000000;0.6460805535
407.5000000000;0.6373226643
408.0000000000;0.6288372278
408.5000000000;0.6210948229
409.0000000000;0.6135501862
409.5000000000;0.6056102514
410.0000000000;0.5975661278
410.5000000000;0.5898599625
411.0000000000;0.5826538801
411.5000000000;0.5755609274
412.0000000000;0.5683712363
412.5000000000;0.5612502694
413.0000000000;0.5544333458
413.5000000000;0.5477461219
414.0000000000;0.5409155488
414.5000000000;0.5340303183
415.0000000000;0.5273566246
415.5000000000;0.5210912824
416.0000000000;0.5149217248
416.5000000000;0.5087054372
417.0000000000;0.5026394725
417.5000000000;0.4966939390
418.0000000000;0.4909153879
418.5000000000;0.4854141176
419.0000000000;0.4798712730
419.5000000000;0.4742384255
420.0000000000;0.4688799679
420.5000000000;0.4637849331
421.0000000000;0.4587455094
421.5000000000;0.4537874758
422.0000000000;0.4488573074
422.5000000000;0.4440648258
423.0000000000;0.4394812882
423.5000000000;0.4348533154
424.0000000000;0.4301936626
424.5000000000;0.4254719913
425.0000000000;0.4207954109
425.5000000000;0.4165064096
426.0000000000;0.4122844934
426.5000000000;0.4079449177
427.0000000000;0.4039783776
427.5000000000;0.4004650414
428.0000000000;0.3969058692
428.5000000000;0.3929729164
429.0000000000;0.3889139295
429.5000000000;0.3853827119
430.0000000000;0.3821595907
430.5000000000;0.3787890673
431.0000000000;0.3752975464
431.5000000000;0.3717731535
432.0000000000;0.3683446050
432.5000000000;0.3651275635
433.0000000000;0.3620780110
433.5000000000;0.3590458930
434.0000000000;0.3562175632
434.5000000000;0.3534297049
435.0000000000;0.3503820896
435.5000000000;0.3473739028
436.0000000000;0.3446957469
436.5000000000;0.3422439694
437.0000000000;0.3398057818
437.5000000000;0.3372193873
438.0000000000;0.3345279396
438.5000000000;0.3320969343
439.0000000000;0.3298508823
439.5000000000;0.3273975551
440.0000000000;0.3249955475
440.5000000000;0.3228843510
441.0000000000;0.3207361996
441.5000000000;0.3185660839
442.0000000000;0.3163321912
442.5000000000;0.3140332401
443.0000000000;0.3119319677
443.5000000000;0.3099154532
444.0000000000;0.3079267144
444.5000000000;0.3060435057
445.0000000000;0.3041994870
445.5000000000;0.3022984564
446.0000000000;0.3003484011
446.5000000000;0.2984394729
447.0000000000;0.2966526747
447.5000000000;0.2948786318
448.0000000000;0.2930585742
448.5000000000;0.2913639247
449.0000000000;0.2897733152
449.5000000000;0.2880361080
450.0000000000;0.2862350643
450.5000000000;0.2845523655
451.0000000000;0.2829165459
451.5000000000;0.2812613249
452.0000000000;0.2795897126
452.5000000000;0.2780341208
453.0000000000;0.2766628563
453.5000000000;0.2751445472
454.0000000000;0.2734084427
454.5000000000;0.2718079984
455.0000000000;0.2703563273
455.5000000000;0.2689058781
456.0000000000;0.2675143778
456.5000000000;0.2661867738
457.0000000000;0.2648133934
457.5000000000;0.2634209096
458.0000000000;0.2620829046
458.5000000000;0.2607647777
459.0000000000;0.2593724430
459.5000000000;0.2578821182
460.0000000000;0.2564061284
460.5000000000;0.2550367415
461.0000000000;0.2536802888
461.5000000000;0.2523476183
462.0000000000;0.2511517107
462.5000000000;0.2500095069
463.0000000000;0.2488426119
463.5000000000;0.2476716787
464.0000000000;0.2464406639
464.5000000000;0.2451692075
465.0000000000;0.2438882589
465.5000000000;0.2425688803
466.0000000000;0.2412958741
466.5000000000;0.2401103377
467.0000000000;0.2388655394
467.5000000000;0.2376342863
468.0000000000;0.2365836203
468.5000000000;0.2354693413
469.0000000000;0.2341171503
469.5000000000;0.2327974588
470.0000000000;0.2316523343
470.5000000000;0.2306184918
471.0000000000;0.2295211852
471.5000000000;0.2283105403
472.0000000000;0.2272238582
472.5000000000;0.2262693197
473.0000000000;0.2252940238
473.5000000000;0.2242770046
474.0000000000;0.2231972069
474.5000000000;0.2220896930
475.0000000000;0.2210129052
475.5000000000;0.2199638039
476.0000000000;0.2189626694
476.5000000000;0.2180118412
477.0000000000;0.2170572281
477.5000000000;0.2160620987
478.0000000000;0.2150362730
478.5000000000;0.2140160501
479.0000000000;0.2130237669
479.5000000000;0.2121692151
480.0000000000;0.2113429159
480.5000000000;0.2102733254
481.0000000000;0.2092045397
481.5000000000;0.2083636671
482.0000000000;0.2075573504
482.5000000000;0.2066818923
483.0000000000;0.2057697326
483.5000000000;0.2049242854
484.0000000000;0.2041618228
484.5000000000;0.2032525390
485.0000000000;0.2022775412
485.5000000000;0.2017186880
486.0000000000;0.2011321485
486.5000000000;0.2000467926
487.0000000000;0.1989649236
487.5000000000;0.1981355250
488.0000000000;0.1971813291
488.5000000000;0.1962466836
489.0000000000;0.1954782903
489.5000000000;0.1948012412
490.0000000000;0.1940943450
490.5000000000;0.1932213753
491.0000000000;0.1923260391
491.5000000000;0.1915512085
492.0000000000;0.1907936484
492.5000000000;0.1900449097
493.0000000000;0.1893669367
493.5000000000;0.1886655539
494.0000000000;0.1878502369
494.5000000000;0.1870154142
495.0000000000;0.1862012148
495.5000000000;0.1853720099
496.0000000000;0.1846563369
496.5000000000;0.1840872169
497.0000000000;0.1833624840
497.5000000000;0.1825076938
498.0000000000;0.1818545014
498.5000000000;0.1813150495
499.0000000000;0.1807123423
499.5000000000;0.1800426096
500.0000000000;0.1793252379
500.5000000000;0.1786119938
501.0000000000;0.1779729575
501.5000000000;0.1774001569
502.0000000000;0.1767217517
502.5000000000;0.1759549677
503.0000000000;0.1752902120
503.5000000000;0.1746325046
504.0000000000;0.1738982648
504.5000000000;0.1732797325
505.0000000000;0.1727805883
505.5000000000;0.1722272187
506.0000000000;0.1715574265
506.5000000000;0.1708189696
507.0000000000;0.1701981723
507.5000000000;0.1696495563
508.0000000000;0.1689899117
508.5000000000;0.1683141142
509.0000000000;0.1677048504
509.5000000000;0.1671182513
510.0000000000;0.1665509045
510.5000000000;0.1660105884
511.0000000000;0.1654458642
511.5000000000;0.1648435295
512.0000000000;0.1642814875
512.5000000000;0.1637568772
513.0000000000;0.1632103920
513.5000000000;0.1625978351
514.0000000000;0.1619410366
514.5000000000;0.1613763571
515.0000000000;0.1608773470
515.5000000000;0.1603201032
516.0000000000;0.1597515345
516.5000000000;0.1592170000
517.0000000000;0.1586873978
517.5000000000;0.1581914574
518.0000000000;0.1577647626
518.5000000000;0.1572756767
519.0000000000;0.1566642523
519.5000000000;0.1560676694
520.0000000000;0.1555466503
520.5000000000;0.1550800502
521.0000000000;0.1545928717
521.5000000000;0.1540474743
522.0000000000;0.1534781158
522.5000000000;0.1529557109
523.0000000000;0.1525405794
523.5000000000;0.1520975083
524.0000000000;0.1515467018
524.5000000000;0.1509886533
525.0000000000;0.1505102813
525.5000000000;0.1501308084
526.0000000000;0.1496946365
526.5000000000;0.1491538584
527.0000000000;0.1486763060
527.5000000000;0.1482915282
528.0000000000;0.1479204595
528.5000000000;0.1474393308
529.0000000000;0.1468608081
529.5000000000;0.1463841796
530.0000000000;0.1459963918
530.5000000000;0.1455807984
531.0000000000;0.1451246440
531.5000000000;0.1446457058
532.0000000000;0.1441698372
532.5000000000;0.1437254250
533.0000000000;0.1433345079
533.5000000000;0.1429803371
534.0000000000;0.1426070780
534.5000000000;0.1421397179
535.0000000000;0.1416611373
535.5000000000;0.1412750930
536.0000000000;0.1408776194
536.5000000000;0.1404286325
537.0000000000;0.1400112361
537.5000000000;0.1396022737
538.0000000000;0.1391618401
538.5000000000;0.1387699991
539.0000000000;0.1384276152
539.5000000000;0.1380378753
540.0000000000;0.1376154423
540.5000000000;0.1372099519
541.0000000000;0.1368116140
541.5000000000;0.1364154220
542.0000000000;0.1360343993
542.5000000000;0.1356662661
543.0000000000;0.1352929920
543.5000000000;0.1349057108
544.0000000000;0.1344998032
544.5000000000;0.1340686381
545.0000000000;0.1336619556
545.5000000000;0.1333161592
546.0000000000;0.1329813749
546.5000000000;0.1326136440
547.0000000000;0.1322002709
547.5000000000;0.1318225712
548.0000000000;0.1315189004
548.5000000000;0.1311662048
549.0000000000;0.1307444870
549.5000000000;0.1303355843
550.0000000000;0.1299336553
550.5000000000;0.1295256466
551.0000000000;0.1291566044
551.5000000000;0.1288171262
552.0000000000;0.1284588575
552.5000000000;0.1280703098
553.0000000000;0.1276741475
553.5000000000;0.1273460984
554.0000000000;0.1270541698
554.5000000000;0.1266973466
555.0000000000;0.1262937784
555.5000000000;0.1259090453
556.0000000000;0.1256001592
556.5000000000;0.1253083348
557.0000000000;0.1249418557
557.5000000000;0.1245719865
558.0000000000;0.1242369190
558.5000000000;0.1238659322
559.0000000000;0.1234831661
559.5000000000;0.1231556237
560.0000000000;0.1228397936
560.5000000000;0.1225038245
561.0000000000;0.1221716106
561.5000000000;0.1218642741
562.0000000000;0.1215770915
562.5000000000;0.1212277189
563.0000000000;0.1208208501
563.5000000000;0.1204729378
564.0000000000;0.1201507151
564.5000000000;0.1197886690
565.0000000000;0.1194521561
565.5000000000;0.1191729158
566.0000000000;0.1189182326
566.5000000000;0.1186340302
567.0000000000;0.1183163747
567.5000000000;0.1180934310
568.0000000000;0.1179536209
568.5000000000;0.1177390367
569.0000000000;0.1173899248
569.5000000000;0.1170001924
570.0000000000;0.1168041006
570.5000000000;0.1166767478
571.0000000000;0.1162230149
571.5000000000;0.1154747605
572.0000000000;0.1149075404
572.5000000000;0.1149076968
573.0000000000;0.1151708812
573.5000000000;0.1151602492
574.0000000000;0.1147943065
574.5000000000;0.1142468303
575.0000000000;0.1139380112
575.5000000000;0.1138296127
576.0000000000;0.1135660931
576.5000000000;0.1131746769
577.0000000000;0.1127899438
577.5000000000;0.1125617400
578.0000000000;0.1124403998
578.5000000000;0.1122657210
579.0000000000;0.1120177358
579.5000000000;0.1117387563
580.0000000000;0.1114665419
580.5000000000;0.1112414151
581.0000000000;0.1110781953
581.5000000000;0.1108256280
582.0000000000;0.1104626730
582.5000000000;0.1100885049
583.0000000000;0.1097707450
583.5000000000;0.1096229255
584.0000000000;0.1095716432
584.5000000000;0.1094896793
585.0000000000;0.1092808396
585.5000000000;0.1089795530
586.0000000000;0.1086793020
586.5000000000;0.1084521636
587.0000000000;0.1082943603
587.5000000000;0.1081431732
588.0000000000;0.1079924777
588.5000000000;0.1078139022
589.0000000000;0.1075119674
589.5000000000;0.1071659327
590.0000000000;0.1069922596
590.5000000000;0.1068612933
591.0000000000;0.1066476330
591.5000000000;0.1064786613
592.0000000000;0.1063905731
592.5000000000;0.1063299701
593.0000000000;0.1062224284
593.5000000000;0.1060435399
594.0000000000;0.1058621034
594.5000000000;0.1057038158
595.0000000000;0.1055501476
595.5000000000;0.1053488329
596.0000000000;0.1051166877
596.5000000000;0.1049976274
597.0000000000;0.1049426869
597.5000000000;0.1048232764
598.0000000000;0.1046654359
598.5000000000;0.1044944152
599.0000000000;0.1043157429
599.5000000000;0.1041891053
600.0000000000;0.1041435599
600.5000000000;0.1040834114
601.0000000000;0.1039807722
601.5000000000;0.1038801149
602.0000000000;0.1037659571
602.5000000000;0.1036090106
603.0000000000;0.1034005806
603.5000000000;0.1032199562
604.0000000000;0.1031657308
604.5000000000;0.1031235084
605.0000000000;0.1029928103
605.5000000000;0.1028330922
606.0000000000;0.1027324274
606.5000000000;0.1027465090
607.0000000000;0.1027075127
607.5000000000;0.1025521457
608.0000000000;0.1024588794
608.5000000000;0.1024120152
609.0000000000;0.1023168862
609.5000000000;0.1022810265
610.0000000000;0.1023120508
610.5000000000;0.1022522524
611.0000000000;0.1021330431
611.5000000000;0.1020519435
612.0000000000;0.1019982472
612.5000000000;0.1019626260
613.0000000000;0.1019536331
613.5000000000;0.1019200534
614.0000000000;0.1018287390
614.5000000000;0.1017458662
615.0000000000;0.1016942561
615.5000000000;0.1016463265
616.0000000000;0.1015772000
616.5000000000;0.1014796942
617.0000000000;0.1013895944
617.5000000000;0.1013358310
618.0000000000;0.1013225988
618.5000000000;0.1013279855
619.0000000000;0.1013338193
619.5000000000;0.1013344079
620.0000000000;0.1012763605
620.5000000000;0.1011212915
621.0000000000;0.1010088474
621.5000000000;0.1010264307
622.0000000000;0.1011097804
622.5000000000;0.1011367813
623.0000000000;0.1010384932
623.5000000000;0.1009523049
624.0000000000;0.1009153798
624.5000000000;0.1008300781
625.0000000000;0.1007249877
625.5000000000;0.1006565243
626.0000000000;0.1006105766
626.5000000000;0.1005886793
627.0000000000;0.1006037667
627.5000000000;0.1005995944
628.0000000000;0.1005421579
628.5000000000;0.1004823372
629.0000000000;0.1004470140
629.5000000000;0.1004260853
630.0000000000;0.1003640592
630.5000000000;0.1002557874
631.0000000000;0.1001862288
631.5000000000;0.1001525000
632.0000000000;0.1001097858
632.5000000000;0.1000728309
633.0000000000;0.1000375822
633.5000000000;0.0999713540
634.0000000000;0.0999229103
634.5000000000;0.0999311507
635.0000000000;0.0999053270
635.5000000000;0.0998338461
636.0000000000;0.0997878537
636.5000000000;0.0997338742
637.0000000000;0.0996505097
637.5000000000;0.0996210501
638.0000000000;0.0996077433
638.5000000000;0.0995066240
639.0000000000;0.0994175225
639.5000000000;0.0994027257
640.0000000000;0.0993620083
640.5000000000;0.0992620736
641.0000000000;0.0991356075
641.5000000000;0.0990624800
642.0000000000;0.0990312248
642.5000000000;0.0989193618
643.0000000000;0.0988379419
643.5000000000;0.0989024714
644.0000000000;0.0989018604
644.5000000000;0.0987810791
645.0000000000;0.0986883566
645.5000000000;0.0986122191
646.0000000000;0.0985157564
646.5000000000;0.0984554812
647.0000000000;0.0984181687
647.5000000000;0.0983411074
648.0000000000;0.0982611179
648.5000000000;0.0982157663
649.0000000000;0.0981867537
649.5000000000;0.0981339216
650.0000000000;0.0980331004
650.5000000000;0.0979620293
651.0000000000;0.0979334489
651.5000000000;0.0978504494
652.0000000000;0.0977285728
652.5000000000;0.0976319537
653.0000000000;0.0975828022
653.5000000000;0.0975091532
654.0000000000;0.0973095819
654.5000000000;0.0972293764
655.0000000000;0.0976785943
655.5000000000;0.0983431488
656.0000000000;0.0984151214
656.5000000000;0.0978903845
657.0000000000;0.0969323963
657.5000000000;0.0966798514
658.0000000000;0.0966349170
658.5000000000;0.0963593647
659.0000000000;0.0961343795
659.5000000000;0.0959630609
660.0000000000;0.0958081856
660.5000000000;0.0956587344
661.0000000000;0.0955457836
661.5000000000;0.0954701155
662.0000000000;0.0953043029
662.5000000000;0.0950798839
663.0000000000;0.0949681923
663.5000000000;0.0948975459
664.0000000000;0.0947574154
664.5000000000;0.0945511833
665.0000000000;0.0943279341
665.5000000000;0.0941416472
666.0000000000;0.0939678773
666.5000000000;0.0938005745
667.0000000000;0.0936854258
667.5000000000;0.0935531110
668.0000000000;0.0933224186
668.5000000000;0.0931045860
669.0000000000;0.0929388031
669.5000000000;0.0927444771
670.0000000000;0.0925374925
670.5000000000;0.0923575014
671.0000000000;0.0921916664
671.5000000000;0.0920120850
672.0000000000;0.0917960405
672.5000000000;0.0915887654
673.0000000000;0.0914105177
673.5000000000;0.0912051126
674.0000000000;0.0909900367
674.5000000000;0.0908061713
675.0000000000;0.0905771777
675.5000000000;0.0903174207
676.0000000000;0.0901680365
676.5000000000;0.0900136754
677.0000000000;0.0897156224
677.5000000000;0.0894316658
678.0000000000;0.0892276913
678.5000000000;0.0890318826
679.0000000000;0.0888180956
679.5000000000;0.0885943323
680.0000000000;0.0883862600
680.5000000000;0.0881651938
681.0000000000;0.0878868178
681.5000000000;0.0876057073
682.0000000000;0.0873678699
682.5000000000;0.0871635750
683.0000000000;0.0869264528
683.5000000000;0.0866271406
684.0000000000;0.0864246488
684.5000000000;0.0863233879
685.0000000000;0.0861476064
685.5000000000;0.0858813077
686.0000000000;0.0855683163
686.5000000000;0.0852467641
687.0000000000;0.0849556699
687.5000000000;0.0847162902
688.0000000000;0.0844875947
688.5000000000;0.0842247978
689.0000000000;0.0839156657
689.5000000000;0.0836329386
690.0000000000;0.0834412724
690.5000000000;0.0832265913
691.0000000000;0.0829527080
691.5000000000;0.0827024654
692.0000000000;0.0824622884
692.5000000000;0.0821962878
693.0000000000;0.0819199234
693.5000000000;0.0816305727
694.0000000000;0.0813138857
694.5000000000;0.0810364708
695.0000000000;0.0808145255
695.5000000000;0.0805390403
696.0000000000;0.0802508444
696.5000000000;0.0800402090
697.0000000000;0.0798028037
697.5000000000;0.0794878379
698.0000000000;0.0791571736
698.5000000000;0.0788575187
699.0000000000;0.0785982981
699.5000000000;0.0783098266
700.0000000000;0.0779850185
700.5000000000;0.0776784346
701.0000000000;0.0774137825
701.5000000000;0.0771865845
702.0000000000;0.0769647658
702.5000000000;0.0767168105
703.0000000000;0.0764191970
703.5000000000;0.0760859475
704.0000000000;0.0757645741
704.5000000000;0.0755128190
705.0000000000;0.0752818435
705.5000000000;0.0750147998
706.0000000000;0.0747505873
706.5000000000;0.0744995996
707.0000000000;0.0742360950
707.5000000000;0.0739688352
708.0000000000;0.0737029016
708.5000000000;0.0734205022
709.0000000000;0.0731059685
709.5000000000;0.0727662146
710.0000000000;0.0724874586
710.5000000000;0.0722674802
711.0000000000;0.0719963163
711.5000000000;0.0717153102
712.0000000000;0.0714742392
712.5000000000;0.0711885989
713.0000000000;0.0708774179
713.5000000000;0.0706301257
714.0000000000;0.0704010129
714.5000000000;0.0701420531
715.0000000000;0.0698666796
715.5000000000;0.0695985556
716.0000000000;0.0693375394
716.5000000000;0.0690294951
717.0000000000;0.0687006637
717.5000000000;0.0684489086
718.0000000000;0.0682302043
718.5000000000;0.0679795519
719.0000000000;0.0677092224
719.5000000000;0.0674219951
720.0000000000;0.0671169087
720.5000000000;0.0668549389
721.0000000000;0.0666442141
721.5000000000;0.0664002299
722.0000000000;0.0661410615
722.5000000000;0.0659005493
723.0000000000;0.0656044632
723.5000000000;0.0652890056
724.0000000000;0.0650716275
724.5000000000;0.0648563206
725.0000000000;0.0645717010
725.5000000000;0.0643184930
726.0000000000;0.0641027614
726.5000000000;0.0638691485
727.0000000000;0.0636255518
727.5000000000;0.0633837208
728.0000000000;0.0631378964
728.5000000000;0.0629090220
729.0000000000;0.0627009869
729.5000000000;0.0624476857
730.0000000000;0.0621590242
730.5000000000;0.0619122572
731.0000000000;0.0617190152
731.5000000000;0.0615370087
732.0000000000;0.0612841882
732.5000000000;0.0609753169
733.0000000000;0.0606825799
733.5000000000;0.0604587421
734.0000000000;0.0602838323
734.5000000000;0.0600800626
735.0000000000;0.0598826148
735.5000000000;0.0597089455
736.0000000000;0.0594557486
736.5000000000;0.0591652431
737.0000000000;0.0589551143
737.5000000000;0.0587389506
738.0000000000;0.0584787056
738.5000000000;0.0582720488
739.0000000000;0.0580770075
739.5000000000;0.0578374267
740.0000000000;0.0576569848
740.5000000000;0.0575156771
741.0000000000;0.0572914258
741.5000000000;0.0570331737
742.0000000000;0.0567897931
742.5000000000;0.0565098412
743.0000000000;0.0562550537
743.5000000000;0.0561091229
744.0000000000;0.0559599772
744.5000000000;0.0557355769
745.0000000000;0.0554614142
745.5000000000;0.0552236773
746.0000000000;0.0550714880
746.5000000000;0.0549226701
747.0000000000;0.0547422357
747.5000000000;0.0545386896
748.0000000000;0.0543038100
748.5000000000;0.0540659130
749.0000000000;0.0538953617
749.5000000000;0.0537273400
750.0000000000;0.0535040610
750.5000000000;0.0533440746
751.0000000000;0.0532177128
751.5000000000;0.0529832877
752.0000000000;0.0527060516
752.5000000000;0.0525049083
753.0000000000;0.0524550863
753.5000000000;0.0523916297
754.0000000000;0.0521298461
754.5000000000;0.0518320873
755.0000000000;0.0516034663
755.5000000000;0.0514224432
756.0000000000;0.0512998216
756.5000000000;0.0512160882
757.0000000000;0.0510768555
757.5000000000;0.0508774370
758.0000000000;0.0506736711
758.5000000000;0.0504929982
759.0000000000;0.0503264256
759.5000000000;0.0501373075
760.0000000000;0.0499305017
760.5000000000;0.0497349650
761.0000000000;0.0495933816
761.5000000000;0.0494343638
762.0000000000;0.0491521619
762.5000000000;0.0489172339
763.0000000000;0.0488057248
763.5000000000;0.0486571901
764.0000000000;0.0484850593
764.5000000000;0.0483528040
765.0000000000;0.0481879488
765.5000000000;0.0479600169
766.0000000000;0.0477030165
766.5000000000;0.0474625602
767.0000000000;0.0472856462
767.5000000000;0.0472074002
768.0000000000;0.0471595563
768.5000000000;0.0470519923
769.0000000000;0.0468996540
769.5000000000;0.0466974676
770.0000000000;0.0464280471
770.5000000000;0.0462188087
771.0000000000;0.0461205207
771.5000000000;0.0459513664
772.0000000000;0.0457174480
772.5000000000;0.0455293283
773.0000000000;0.0453506671
773.5000000000;0.0451875143
774.0000000000;0.0451059081
774.5000000000;0.0449855700
775.0000000000;0.0447526947
775.5000000000;0.0445711873
776.0000000000;0.0444697924
776.5000000000;0.0443704315
777.0000000000;0.0442348309
777.5000000000;0.0440619215
778.0000000000;0.0438881069
778.5000000000;0.0437722020
779.0000000000;0.0437187776
779.5000000000;0.0436071381
780.0000000000;0.0434343889
780.5000000000;0.0432855785
781.0000000000;0.0431926064
781.5000000000;0.0431216583
782.0000000000;0.0429826602
782.5000000000;0.0428207032
783.0000000000;0.0427008457
783.5000000000;0.0425777584
784.0000000000;0.0424084850
784.5000000000;0.0421877839
785.0000000000;0.0420188978
785.5000000000;0.0419399962
786.0000000000;0.0418538712
786.5000000000;0.0417448655
787.0000000000;0.0416243002
787.5000000000;0.0414532572
788.0000000000;0.0413111113
788.5000000000;0.0413174070
789.0000000000;0.0412559547
789.5000000000;0.0410277024
790.0000000000;0.0408394560
790.5000000000;0.0407330357
791.0000000000;0.0406487472
791.5000000000;0.0405347236
792.0000000000;0.0403869860
792.5000000000;0.0402460769
793.0000000000;0.0401505753
793.5000000000;0.0401049033
794.0000000000;0.0400635414
794.5000000000;0.0399887413
795.0000000000;0.0398576856
795.5000000000;0.0396755524
796.0000000000;0.0394825563
796.5000000000;0.0393378511
797.0000000000;0.0392359383
797.5000000000;0.0391639732
798.0000000000;0.0391280726
798.5000000000;0.0390806384
799.0000000000;0.0389776342
799.5000000000;0.0388715379
800.0000000000;0.0387825929
800.5000000000;0.0386831537
801.0000000000;0.0385411978
801.5000000000;0.0383775830
802.0000000000;0.0382851176
802.5000000000;0.0382079184
803.0000000000;0.0380597897
803.5000000000;0.0379198715
804.0000000000;0.0378330722
804.5000000000;0.0377769209
805.0000000000;0.0376868472
805.5000000000;0.0375624597
806.0000000000;0.0375126451
806.5000000000;0.0374919549
807.0000000000;0.0374026187
807.5000000000;0.0372646451
808.0000000000;0.0371274278
808.5000000000;0.0370319076
809.0000000000;0.0369415358
809.5000000000;0.0368072577
810.0000000000;0.0366178490
810.5000000000;0.0364955179
811.0000000000;0.0365229696
811.5000000000;0.0364890508
812.0000000000;0.0363608710
812.5000000000;0.0362831093
813.0000000000;0.0362069383
813.5000000000;0.0361035429
814.0000000000;0.0360556133
814.5000000000;0.0359877460
815.0000000000;0.0358260609
815.5000000000;0.0357380100
816.0000000000;0.0357337110
816.5000000000;0.0356737003
817.0000000000;0.0355696529
817.5000000000;0.0354721062
818.0000000000;0.0354105979
818.5000000000;0.0353416353
819.0000000000;0.0352274179
819.5000000000;0.0351367183
820.0000000000;0.0350745805
820.5000000000;0.0349955633
821.0000000000;0.0349383466
821.5000000000;0.0349059962
822.0000000000;0.0348291919
822.5000000000;0.0347224921
823.0000000000;0.0346331038
823.5000000000;0.0345769376
824.0000000000;0.0345259123
824.5000000000;0.0344309956
825.0000000000;0.0342896692
825.5000000000;0.0341633298
826.0000000000;0.0341561362
826.5000000000;0.0341762863
827.0000000000;0.0341041386
827.5000000000;0.0339665487
828.0000000000;0.0338476747
828.5000000000;0.0338163674
829.0000000000;0.0337724127
829.5000000000;0.0336699747
830.0000000000;0.0335793905
830.5000000000;0.0335582271
831.0000000000;0.0335662402
831.5000000000;0.0334093273
832.0000000000;0.0332533792
832.5000000000;0.0333515145
833.0000000000;0.0333647393
833.5000000000;0.0331775583
834.0000000000;0.0330419205
834.5000000000;0.0330373272
835.0000000000;0.0330883041
835.5000000000;0.0329966657
836.0000000000;0.0328514799
836.5000000000;0.0328201354
837.0000000000;0.0327334963
837.5000000000;0.0325963758
838.0000000000;0.0325933434
838.5000000000;0.0325863734
839.0000000000;0.0324602388
839.5000000000;0.0323135369
840.0000000000;0.0322332196
840.5000000000;0.0322346203
841.0000000000;0.0321956724
841.5000000000;0.0320880264
842.0000000000;0.0319864713
842.5000000000;0.0319618583
843.0000000000;0.0319931395
843.5000000000;0.0319479331
844.0000000000;0.0318319835
844.5000000000;0.0317071564
845.0000000000;0.0316042118
845.5000000000;0.0315648280
846.0000000000;0.0315933004
846.5000000000;0.0315143168
847.0000000000;0.0313444100
847.5000000000;0.0313305929
848.0000000000;0.0313140266
848.5000000000;0.0311704576
849.0000000000;0.0311570223
849.5000000000;0.0312225632
850.0000000000;0.0311648697
850.5000000000;0.0310541894
851.0000000000;0.0309538785
851.5000000000;0.0308732782
852.0000000000;0.0308852103
852.5000000000;0.0309530497
853.0000000000;0.0308642760
853.5000000000;0.0307309292
854.0000000000;0.0307231415
854.5000000000;0.0306751356
855.0000000000;0.0305643752
855.5000000000;0.0305112414
856.0000000000;0.0304790456
856.5000000000;0.0304172784
857.0000000000;0.0303282496
857.5000000000;0.0302861780
858.0000000000;0.0303239711
858.5000000000;0.0303158034
859.0000000000;0.0302191265
859.5000000000;0.0300884582
860.0000000000;0.0300442539
860.5000000000;0.0300766509
861.0000000000;0.0300399922
861.5000000000;0.0299809240
862.0000000000;0.0299353544
862.5000000000;0.0297988374
863.0000000000;0.0296577718
863.5000000000;0.0296531878
864.0000000000;0.0297233742
864.5000000000;0.0297503769
865.0000000000;0.0296462830
865.5000000000;0.0295679104
866.0000000000;0.0295617301
866.5000000000;0.0294449944
867.0000000000;0.0293340199
867.5000000000;0.0293447357
868.0000000000;0.0292658191
868.5000000000;0.0291436855
869.0000000000;0.0291571841
869.5000000000;0.0291311704
870.0000000000;0.0290085357
870.5000000000;0.0289472621
871.0000000000;0.0289895143
871.5000000000;0.0290583465
872.0000000000;0.0289821103
872.5000000000;0.0289357677
873.0000000000;0.0290767401
873.5000000000;0.0289505515
874.0000000000;0.0286428370
874.5000000000;0.0286603682
875.0000000000;0.0287320558
875.5000000000;0.0286422595
876.0000000000;0.0285617225
876.5000000000;0.0285373777
877.0000000000;0.0285206549
877.5000000000;0.0284225158
878.0000000000;0.0283006448
878.5000000000;0.0282721240
879.0000000000;0.0282906573
879.5000000000;0.0282859821
880.0000000000;0.0282210875
880.5000000000;0.0281777177
881.0000000000;0.0281619299
881.5000000000;0.0280203838
882.0000000000;0.0279522426
882.5000000000;0.0281182341
883.0000000000;0.0280967187
883.5000000000;0.0279319659
884.0000000000;0.0279687252
884.5000000000;0.0279582478
885.0000000000;0.0278049484
885.5000000000;0.0277563259
886.0000000000;0.0277860425
886.5000000000;0.0277714059
887.0000000000;0.0276515409
887.5000000000;0.0275692921
888.0000000000;0.0276538078
888.5000000000;0.0276572704
889.0000000000;0.0275304541
889.5000000000;0.0274545476
890.0000000000;0.0275037196
890.5000000000;0.0275989491
891.0000000000;0.0275371131
891.5000000000;0.0274367575
892.0000000000;0.0274181850
892.5000000000;0.0273102075
893.0000000000;0.0271621216
893.5000000000;0.0271277633
894.0000000000;0.0271287188
894.5000000000;0.0271033384
895.0000000000;0.0270553529
895.5000000000;0.0269909073
896.0000000000;0.0269073006
896.5000000000;0.0267938934
897.0000000000;0.0266834125
897.5000000000;0.0266328268
898.0000000000;0.0266928971
898.5000000000;0.0267996937
899.0000000000;0.0268602036
899.5000000000;0.0269554462
900.0000000000;0.0269845743
900.5000000000;0.0267106071
901.0000000000;0.0264560226
901.5000000000;0.0264553931
902.0000000000;0.0265118591
902.5000000000;0.0264979433
903.0000000000;0.0264381561
903.5000000000;0.0265627988
904.0000000000;0.0266771670
904.5000000000;0.0264593475
905.0000000000;0.0263429992
905.5000000000;0.0264041275
906.0000000000;0.0262544211
906.5000000000;0.0261873845
907.0000000000;0.0263204910
907.5000000000;0.0261643808
908.0000000000;0.0259466767
908.5000000000;0.0260393228
909.0000000000;0.0261947885
909.5000000000;0.0261511318
910.0000000000;0.0258525126
910.5000000000;0.0257461108
911.0000000000;0.0259776749
911.5000000000;0.0262304470
912.0000000000;0.0261641797
912.5000000000;0.0257871468
913.0000000000;0.0256207921
913.5000000000;0.0256984644
914.0000000000;0.0258086361
914.5000000000;0.0258338172
915.0000000000;0.0258026328
915.5000000000;0.0258075446
916.0000000000;0.0258179363
916.5000000000;0.0257750489
917.0000000000;0.0256490726
917.5000000000;0.0255677719
918.0000000000;0.0255554840
918.5000000000;0.0254360251
919.0000000000;0.0254039355
919.5000000000;0.0255925059
920.0000000000;0.0255728588
920.5000000000;0.0253843479
921.0000000000;0.0253168028
921.5000000000;0.0251941476
922.0000000000;0.0251524821
922.5000000000;0.0255373791
923.0000000000;0.0256195460
923.5000000000;0.0251475386
924.0000000000;0.0249728430
924.5000000000;0.0251390543
925.0000000000;0.0253079720
925.5000000000;0.0252592005
926.0000000000;0.0251239538
926.5000000000;0.0251655765
927.0000000000;0.0253461916
927.5000000000;0.0254250132
928.0000000000;0.0251652878
928.5000000000;0.0249654315
929.0000000000;0.0250468794
929.5000000000;0.0251516085
930.0000000000;0.0251244530
930.5000000000;0.0249671955
931.0000000000;0.0248626824
931.5000000000;0.0249044783
932.0000000000;0.0250403397
932.5000000000;0.0250252988
933.0000000000;0.0249472391
933.5000000000;0.0250749178
934.0000000000;0.0251491480
934.5000000000;0.0250952244
935.0000000000;0.0251354277
935.5000000000;0.0250194538
936.0000000000;0.0247015841
936.5000000000;0.0247005336
937.0000000000;0.0248016976
937.5000000000;0.0246914960
938.0000000000;0.0247702412
938.5000000000;0.0249506067
939.0000000000;0.0248712916
939.5000000000;0.0247220770
940.0000000000;0.0246698577
940.5000000000;0.0247344691
941.0000000000;0.0249220058
941.5000000000;0.0250923876
942.0000000000;0.0249716584
942.5000000000;0.0248125326
943.0000000000;0.0248307418
943.5000000000;0.0247251745
944.0000000000;0.0245635640
944.5000000000;0.0245917831
945.0000000000;0.0247985050
945.5000000000;0.0249745622
946.0000000000;0.0248547662
946.5000000000;0.0244953204
947.0000000000;0.0242775958
947.5000000000;0.0246671513
948.0000000000;0.0249407683
948.5000000000;0.0247664843
949.0000000000;0.0250042621
949.5000000000;0.0252681561
950.0000000000;0.0249395315
950.5000000000;0.0244360883
951.0000000000;0.0242851768
951.5000000000;0.0246707853
952.0000000000;0.0248062145
952.5000000000;0.0245050900
953.0000000000;0.0242809355
953.5000000000;0.0243686680
954.0000000000;0.0245867725
954.5000000000;0.0244594794
955.0000000000;0.0243926346
955.5000000000;0.0246943273
956.0000000000;0.0248776954
956.5000000000;0.0245644562
957.0000000000;0.0239892099
957.5000000000;0.0244602859
958.0000000000;0.0252523292
958.5000000000;0.0248529352
959.0000000000;0.0245922115
959.5000000000;0.0250247512
960.0000000000;0.0253772065
960.5000000000;0.0251155794
961.0000000000;0.0244371537
961.5000000000;0.0242509022
962.0000000000;0.0244637355
962.5000000000;0.0246558320
963.0000000000;0.0246430356
963.5000000000;0.0246641263
964.0000000000;0.0248637181
964.5000000000;0.0246775504
965.0000000000;0.0242428947
965.5000000000;0.0240761638
966.0000000000;0.0239786636
966.5000000000;0.0240390655
967.0000000000;0.0245610066
967.5000000000;0.0248591658
968.0000000000;0.0245118495
968.5000000000;0.0239175241
969.0000000000;0.0240572449
969.5000000000;0.0248117186
970.0000000000;0.0241730176
970.5000000000;0.0235866103
971.0000000000;0.0246714931
971.5000000000;0.0250455122
972.0000000000;0.0242888983
972.5000000000;0.0237235539
973.0000000000;0.0243422240
973.5000000000;0.0251698121
974.0000000000;0.0243143663
974.5000000000;0.0235553626
975.0000000000;0.0238795131
975.5000000000;0.0241807550
976.0000000000;0.0238947161
976.5000000000;0.0232200455
977.0000000000;0.0230845921
977.5000000000;0.0236488096
978.0000000000;0.0243283082
978.5000000000;0.0240140148
979.0000000000;0.0234881677
979.5000000000;0.0239092596
980.0000000000;0.0239728875
980.5000000000;0.0233497284
981.0000000000;0.0228712540
981.5000000000;0.0232127402
982.0000000000;0.0239076801
982.5000000000;0.0237090625
983.0000000000;0.0234735683
983.5000000000;0.0237023812
984.0000000000;0.0235648863
984.5000000000;0.0232302174
985.0000000000;0.0231149625
985.5000000000;0.0231983755
986.0000000000;0.0233347975
986.5000000000;0.0233027712
987.0000000000;0.0228634439
987.5000000000;0.0226171464
988.0000000000;0.0230458453
988.5000000000;0.0224606488
989.0000000000;0.0214981083
989.5000000000;0.0223222747
990.0000000000;0.0227849372
990.5000000000;0.0221980549
991.0000000000;0.0224373508
991.5000000000;0.0224909652
992.0000000000;0.0218620393
992.5000000000;0.0221539121
993.0000000000;0.0228731055
993.5000000000;0.0229369011
994.0000000000;0.0222676191
994.5000000000;0.0220132023
995.0000000000;0.0228503346
995.5000000000;0.0227909833
996.0000000000;0.0221829787
996.5000000000;0.0225756746
997.0000000000;0.0227775201
997.5000000000;0.0223252364
998.0000000000;0.0219465718
998.5000000000;0.0222153123
999.0000000000;0.0228417348
999.5000000000;0.0227739252
1000.0000000000;0.0221280530
1000.5000000000;0.0217628963
1001.0000000000;0.0226342436
1001.5000000000;0.0229595192
1002.0000000000;0.0216675270
1002.5000000000;0.0211306475
1003.0000000000;0.0211198367
1003.5000000000;0.0206774008
1004.0000000000;0.0210772324
1004.5000000000;0.0216384176
1005.0000000000;0.0210716687
1005.5000000000;0.0212077126
1006.0000000000;0.0222802591
1006.5000000000;0.0227979124
1007.0000000000;0.0223326720
1007.5000000000;0.0216013733
1008.0000000000;0.0218463894
1008.5000000000;0.0221092366
1009.0000000000;0.0218206458
1009.5000000000;0.0217902809
1010.0000000000;0.0218338445
1010.5000000000;0.0216451958
1011.0000000000;0.0214873701
1011.5000000000;0.0216738209
1012.0000000000;0.0219609365
1012.5000000000;0.0211151764
1013.0000000000;0.0200216472
1013.5000000000;0.0205045901
1014.0000000000;0.0228244103
1014.5000000000;0.0243961066
1015.0000000000;0.0225661211
1015.5000000000;0.0212500021
1016.0000000000;0.0216131061
1016.5000000000;0.0213911645
1017.0000000000;0.0209535714
1017.5000000000;0.0209090766
1018.0000000000;0.0213356484
1018.5000000000;0.0226747245
1019.0000000000;0.0240196437
1019.5000000000;0.0228079632
