182.5000000000;10.8917493820
183.0000000000;10.2706680298
183.5000000000;9.7148809433
184.0000000000;9.1622829437
184.5000000000;8.4230661392
185.0000000000;7.3190283775
185.5000000000;6.2585020065
186.0000000000;5.4154028893
186.5000000000;3.7422053814
187.0000000000;1.9273009300
187.5000000000;1.2671294212
188.0000000000;1.0538169146
188.5000000000;0.7425131798
189.0000000000;0.4388637245
189.5000000000;0.3205736279
190.0000000000;0.2956822217
190.5000000000;0.2800241709
191.0000000000;0.2375660539
191.5000000000;0.1797164679
192.0000000000;0.1616597623
192.5000000000;0.1841308177
193.0000000000;0.1917947382
193.5000000000;0.1737819016
194.0000000000;0.1539348364
194.5000000000;0.1422995329
195.0000000000;0.1424549222
195.5000000000;0.1461592764
196.0000000000;0.1441215277
196.5000000000;0.1309975982
197.0000000000;0.1165667176
197.5000000000;0.1098043695
198.0000000000;0.1010083109
198.5000000000;0.0898245201
199.0000000000;0.0882294625
199.5000000000;0.0897300839
200.0000000000;0.0824911445
200.5000000000;0.0714866817
201.0000000000;0.0635320768
201.5000000000;0.0618591569
202.0000000000;0.0635502487
202.5000000000;0.0626899675
203.0000000000;0.0595659986
203.5000000000;0.0566335060
204.0000000000;0.0565094687
204.5000000000;0.0574913546
205.0000000000;0.0537612624
205.5000000000;0.0515658632
206.0000000000;0.0599976331
206.5000000000;0.0686239749
207.0000000000;0.0681210384
207.5000000000;0.0617052093
208.0000000000;0.0592663027
208.5000000000;0.0707911402
209.0000000000;0.0778045580
209.5000000000;0.0668801665
210.0000000000;0.0651466548
210.5000000000;0.0769927874
211.0000000000;0.0768900663
211.5000000000;0.0681581497
212.0000000000;0.0654416233
212.5000000000;0.0685328245
213.0000000000;0.0722403601
213.5000000000;0.0695860460
214.0000000000;0.0614029057
214.5000000000;0.0537504628
215.0000000000;0.0527810939
215.5000000000;0.0587926917
216.0000000000;0.0618214421
216.5000000000;0.0586607344
217.0000000000;0.0530932993
217.5000000000;0.0507597998
218.0000000000;0.0536779501
218.5000000000;0.0536090098
219.0000000000;0.0480682477
219.5000000000;0.0425908752
220.0000000000;0.0407125540
220.5000000000;0.0428031459
221.0000000000;0.0421850942
221.5000000000;0.0372078717
222.0000000000;0.0368071757
222.5000000000;0.0408186316
223.0000000000;0.0424734987
223.5000000000;0.0438675359
224.0000000000;0.0477276780
224.5000000000;0.0498597510
225.0000000000;0.0491076037
225.5000000000;0.0488695428
226.0000000000;0.0488664322
226.5000000000;0.0485148244
227.0000000000;0.0538575649
227.5000000000;0.0623301603
228.0000000000;0.0567698777
228.5000000000;0.0460041724
229.0000000000;0.0521616340
229.5000000000;0.0607914925
230.0000000000;0.0583837964
230.5000000000;0.0583808497
231.0000000000;0.0621051379
231.5000000000;0.0583135188
232.0000000000;0.0520948432
232.5000000000;0.0524040833
233.0000000000;0.0587418787
233.5000000000;0.0650245622
234.0000000000;0.0621209964
234.5000000000;0.0570954606
235.0000000000;0.0610029101
235.5000000000;0.0656686425
236.0000000000;0.0632232577
236.5000000000;0.0540540665
237.0000000000;0.0468549393
237.5000000000;0.0515779220
238.0000000000;0.0567470714
238.5000000000;0.0536073335
239.0000000000;0.0532756671
239.5000000000;0.0575822629
240.0000000000;0.0582034327
240.5000000000;0.0556598529
241.0000000000;0.0538614690
241.5000000000;0.0546380803
242.0000000000;0.0560653359
242.5000000000;0.0527212359
243.0000000000;0.0486115739
243.5000000000;0.0509856008
244.0000000000;0.0559882261
244.5000000000;0.0586439930
245.0000000000;0.0574377254
245.5000000000;0.0547140203
246.0000000000;0.0548137426
246.5000000000;0.0557189807
247.0000000000;0.0544300415
247.5000000000;0.0520313643
248.0000000000;0.0520683080
248.5000000000;0.0589147247
249.0000000000;0.0640607476
249.5000000000;0.0580864474
250.0000000000;0.0558278896
250.5000000000;0.0638710111
251.0000000000;0.0665827021
251.5000000000;0.0649286807
252.0000000000;0.0705694258
252.5000000000;0.0765010640
253.0000000000;0.0758341253
253.5000000000;0.0755027160
254.0000000000;0.0764639005
254.5000000000;0.0738986656
255.0000000000;0.0768504813
255.5000000000;0.0907942057
256.0000000000;0.0935641825
256.5000000000;0.0830796883
257.0000000000;0.0861253664
257.5000000000;0.0989819765
258.0000000000;0.1041726843
258.5000000000;0.1026723236
259.0000000000;0.0993916094
259.5000000000;0.0983291864
260.0000000000;0.1024620757
260.5000000000;0.1125627533
261.0000000000;0.1221043020
261.5000000000;0.1261157393
262.0000000000;0.1276322305
262.5000000000;0.1314567775
263.0000000000;0.1427335292
263.5000000000;0.1643544436
264.0000000000;0.1966214180
264.5000000000;0.2355023324
265.0000000000;0.2763945758
265.5000000000;0.3155550659
266.0000000000;0.3566776514
266.5000000000;0.4022912383
267.0000000000;0.4364193678
267.5000000000;0.4566811919
268.0000000000;0.4859068394
268.5000000000;0.5249564648
269.0000000000;0.5595599413
269.5000000000;0.5835015178
270.0000000000;0.6028540134
270.5000000000;0.6413069963
271.0000000000;0.6905016899
271.5000000000;0.7191463113
272.0000000000;0.7470512390
272.5000000000;0.7976253629
273.0000000000;0.8479718566
273.5000000000;0.8917747140
274.0000000000;0.9493326545
274.5000000000;1.0186233521
275.0000000000;1.0875173807
275.5000000000;1.1564457417
276.0000000000;1.2306938171
276.5000000000;1.3171802759
277.0000000000;1.4065713882
277.5000000000;1.4831200838
278.0000000000;1.5615549088
278.5000000000;1.6523987055
279.0000000000;1.7358828783
279.5000000000;1.8124736547
280.0000000000;1.9028143883
280.5000000000;1.9982815981
281.0000000000;2.0885417461
281.5000000000;2.1959259510
282.0000000000;2.3231790066
282.5000000000;2.4431188107
283.0000000000;2.5577747822
283.5000000000;2.6835458279
284.0000000000;2.8204975128
284.5000000000;2.9695217609
285.0000000000;3.1388444901
285.5000000000;3.3087925911
286.0000000000;3.4488954544
286.5000000000;3.5895411968
287.0000000000;3.7523741722
287.5000000000;3.9034311771
288.0000000000;4.0390481949
288.5000000000;4.1818828583
289.0000000000;4.3168230057
289.5000000000;4.4300870895
290.0000000000;4.5493187904
290.5000000000;4.6732006073
291.0000000000;4.7656593323
291.5000000000;4.8461441994
292.0000000000;4.9459271431
292.5000000000;5.0381803513
293.0000000000;5.1110463142
293.5000000000;5.1877388954
294.0000000000;5.2625393867
294.5000000000;5.3156542778
295.0000000000;5.3543186188
295.5000000000;5.3917870522
296.0000000000;5.4374594688
296.5000000000;5.4848041534
297.0000000000;5.5182213783
297.5000000000;5.5407967567
298.0000000000;5.5602955818
298.5000000000;5.5796790123
299.0000000000;5.5914812088
299.5000000000;5.5826573372
300.0000000000;5.5709667206
300.5000000000;5.5755286217
301.0000000000;5.5800724030
301.5000000000;5.5691962242
302.0000000000;5.5386681557
302.5000000000;5.5039911270
303.0000000000;5.4820542336
303.5000000000;5.4556088448
304.0000000000;5.4144158363
304.5000000000;5.3714327812
305.0000000000;5.3321733475
305.5000000000;5.2945833206
306.0000000000;5.2539944649
306.5000000000;5.2059621811
307.0000000000;5.1480245590
307.5000000000;5.0906939507
308.0000000000;5.0512742996
308.5000000000;5.0139975548
309.0000000000;4.9596309662
309.5000000000;4.8949918747
310.0000000000;4.8313150406
310.5000000000;4.7775664330
311.0000000000;4.7226719856
311.5000000000;4.6540670395
312.0000000000;4.5884933472
312.5000000000;4.5334858894
313.0000000000;4.4750247002
313.5000000000;4.4137592316
314.0000000000;4.3585395813
314.5000000000;4.3066825867
315.0000000000;4.2527933121
315.5000000000;4.1926016808
316.0000000000;4.1280794144
316.5000000000;4.0663566589
317.0000000000;4.0141100883
317.5000000000;3.9716198444
318.0000000000;3.9252014160
318.5000000000;3.8744366169
319.0000000000;3.8328628540
319.5000000000;3.7982997894
320.0000000000;3.7623441219
320.5000000000;3.7209119797
321.0000000000;3.6730060577
321.5000000000;3.6217937469
322.0000000000;3.5819947720
322.5000000000;3.5631999969
323.0000000000;3.5302612782
323.5000000000;3.4745309353
324.0000000000;3.4439601898
324.5000000000;3.4356474876
325.0000000000;3.4128348827
325.5000000000;3.3722944260
326.0000000000;3.3291592598
326.5000000000;3.3120110035
327.0000000000;3.3097970486
327.5000000000;3.2832486629
328.0000000000;3.2457110882
328.5000000000;3.2191667557
329.0000000000;3.1958532333
329.5000000000;3.1712222099
330.0000000000;3.1496126652
330.5000000000;3.1379580498
331.0000000000;3.1359801292
331.5000000000;3.1195733547
332.0000000000;3.0812029839
332.5000000000;3.0411982536
333.0000000000;3.0221683979
333.5000000000;3.0330827236
334.0000000000;3.0314762592
334.5000000000;2.9991939068
335.0000000000;2.9728460312
335.5000000000;2.9585740566
336.0000000000;2.9416708946
336.5000000000;2.9249413013
337.0000000000;2.9098320007
337.5000000000;2.8860740662
338.0000000000;2.8575699329
338.5000000000;2.8386330605
339.0000000000;2.8277456760
339.5000000000;2.8183174133
340.0000000000;2.8055710793
340.5000000000;2.7826478481
341.0000000000;2.7437112331
341.5000000000;2.7070472240
342.0000000000;2.6878488064
342.5000000000;2.6639497280
343.0000000000;2.6324200630
343.5000000000;2.6162905693
344.0000000000;2.5972282887
344.5000000000;2.5519304276
345.0000000000;2.5174691677
345.5000000000;2.5059890747
346.0000000000;2.4792633057
346.5000000000;2.4454650879
347.0000000000;2.4318549633
347.5000000000;2.4115495682
348.0000000000;2.3653948307
348.5000000000;2.3120214939
349.0000000000;2.2699050903
349.5000000000;2.2494688034
350.0000000000;2.2331833839
350.5000000000;2.2042350769
351.0000000000;2.1658525467
351.5000000000;2.1197249889
352.0000000000;2.0669586658
352.5000000000;2.0285391808
353.0000000000;2.0131843090
353.5000000000;1.9809969664
354.0000000000;1.9263178110
354.5000000000;1.8849823475
355.0000000000;1.8643670082
355.5000000000;1.8504165411
356.0000000000;1.8092114925
356.5000000000;1.7401531935
357.0000000000;1.6868058443
357.5000000000;1.6582295895
358.0000000000;1.6397894621
358.5000000000;1.6082216501
359.0000000000;1.5618640184
359.5000000000;1.5406262875
360.0000000000;1.5180975199
360.5000000000;1.4484828711
361.0000000000;1.3872011900
361.5000000000;1.3553198576
362.0000000000;1.3404633999
362.5000000000;1.3180497885
363.0000000000;1.2608717680
363.5000000000;1.2084505558
364.0000000000;1.1900056601
364.5000000000;1.1617647409
365.0000000000;1.1149141788
365.5000000000;1.0780606270
366.0000000000;1.0521875620
366.5000000000;1.0289540291
367.0000000000;1.0036243200
367.5000000000;0.9741011858
368.0000000000;0.9419180155
368.5000000000;0.9108390808
369.0000000000;0.8834583163
369.5000000000;0.8570812941
370.0000000000;0.8332245350
370.5000000000;0.8187872171
371.0000000000;0.8033099771
371.5000000000;0.7729279399
372.0000000000;0.7418193221
372.5000000000;0.7222120762
373.0000000000;0.7118455172
373.5000000000;0.6936726570
374.0000000000;0.6511508226
374.5000000000;0.6132074594
375.0000000000;0.6010589600
375.5000000000;0.5982607603
376.0000000000;0.5920614004
376.5000000000;0.5776361823
377.0000000000;0.5602899790
377.5000000000;0.5461789370
378.0000000000;0.5348616242
378.5000000000;0.5259851813
379.0000000000;0.5198562145
379.5000000000;0.5114895701
380.0000000000;0.4973230362
380.5000000000;0.4836874604
381.0000000000;0.4757824838
381.5000000000;0.4737664461
382.0000000000;0.4675447345
382.5000000000;0.4494620562
383.0000000000;0.4309482872
383.5000000000;0.4221931398
384.0000000000;0.4285094440
384.5000000000;0.4367000163
385.0000000000;0.4304344952
385.5000000000;0.4168823063
386.0000000000;0.4084427357
386.5000000000;0.4154110551
387.0000000000;0.4212168753
387.5000000000;0.4065452814
388.0000000000;0.4042143524
388.5000000000;0.4258503020
389.0000000000;0.4319148660
389.5000000000;0.4182568192
390.0000000000;0.4074989557
390.5000000000;0.4070287645
391.0000000000;0.4119272232
391.5000000000;0.4057907164
392.0000000000;0.3931458592
392.5000000000;0.3906866610
393.0000000000;0.3860000968
393.5000000000;0.3745400310
394.0000000000;0.3866064250
394.5000000000;0.4125083387
395.0000000000;0.4118451178
395.5000000000;0.3975246251
396.0000000000;0.3954626918
396.5000000000;0.4106990695
397.0000000000;0.4271272719
397.5000000000;0.4180770814
398.0000000000;0.4068134129
398.5000000000;0.4174037576
399.0000000000;0.4202234745
399.5000000000;0.4085432291
400.0000000000;0.4090930820
400.5000000000;0.4253561497
401.0000000000;0.4431625605
401.5000000000;0.4357947409
402.0000000000;0.4076985419
402.5000000000;0.4025616646
403.0000000000;0.4232945740
403.5000000000;0.4487261176
404.0000000000;0.4592143297
404.5000000000;0.4549820721
405.0000000000;0.4608682990
405.5000000000;0.4663366079
406.0000000000;0.4523341656
406.5000000000;0.4549650848
407.0000000000;0.4903414249
407.5000000000;0.5198328495
408.0000000000;0.5316414833
408.5000000000;0.5373600721
409.0000000000;0.5420055985
409.5000000000;0.5496416688
410.0000000000;0.5657567382
410.5000000000;0.5878336430
411.0000000000;0.6089590788
411.5000000000;0.6302489638
412.0000000000;0.6510500312
412.5000000000;0.6637645960
413.0000000000;0.6770452261
413.5000000000;0.7085899115
414.0000000000;0.7444515228
414.5000000000;0.7682597041
415.0000000000;0.7889655232
415.5000000000;0.8162066936
416.0000000000;0.8555731773
416.5000000000;0.8972111940
417.0000000000;0.9320276380
417.5000000000;0.9736467600
418.0000000000;1.0220291615
418.5000000000;1.0619870424
419.0000000000;1.0986686945
419.5000000000;1.1429071426
420.0000000000;1.1993435621
420.5000000000;1.2639614344
421.0000000000;1.3240765333
421.5000000000;1.3837028742
422.0000000000;1.4514056444
422.5000000000;1.5159863234
423.0000000000;1.5759487152
423.5000000000;1.6486579180
424.0000000000;1.7347226143
424.5000000000;1.8286817074
425.0000000000;1.9204227924
425.5000000000;2.0054187775
426.0000000000;2.1066329479
426.5000000000;2.2226362228
427.0000000000;2.3268134594
427.5000000000;2.4235560894
428.0000000000;2.5305702686
428.5000000000;2.6522502899
429.0000000000;2.7894878387
429.5000000000;2.9339632988
430.0000000000;3.0805821419
430.5000000000;3.2285556793
431.0000000000;3.3637263775
431.5000000000;3.5040407181
432.0000000000;3.6801247597
432.5000000000;3.8648102283
433.0000000000;4.0362806320
433.5000000000;4.2078919411
434.0000000000;4.3790950775
434.5000000000;4.5675177574
435.0000000000;4.7766499519
435.5000000000;4.9796519279
436.0000000000;5.1867918968
436.5000000000;5.4051647186
437.0000000000;5.6244983673
437.5000000000;5.8539953232
438.0000000000;6.0975775719
438.5000000000;6.3375110626
439.0000000000;6.5715718269
439.5000000000;6.8126482964
440.0000000000;7.0689334869
440.5000000000;7.3430652618
441.0000000000;7.6180100441
441.5000000000;7.8725261688
442.0000000000;8.1383953094
442.5000000000;8.4366769791
443.0000000000;8.7430057526
443.5000000000;9.0456342697
444.0000000000;9.3451480865
444.5000000000;9.6493673325
445.0000000000;9.9588022232
445.5000000000;10.2733621597
446.0000000000;10.5986089706
446.5000000000;10.9303455353
447.0000000000;11.2637777328
447.5000000000;11.6074485779
448.0000000000;11.9604043961
448.5000000000;12.3106031418
449.0000000000;12.6561899185
449.5000000000;13.0072154999
450.0000000000;13.3647146225
450.5000000000;13.7272825241
451.0000000000;14.1037406921
451.5000000000;14.4919185638
452.0000000000;14.8781032562
452.5000000000;15.2651319504
453.0000000000;15.6627054214
453.5000000000;16.0611248016
454.0000000000;16.4544563293
454.5000000000;16.8504295349
455.0000000000;17.2509498596
455.5000000000;17.6548042297
456.0000000000;18.0582256317
456.5000000000;18.4631557465
457.0000000000;18.8753433228
457.5000000000;19.2951202393
458.0000000000;19.7188930511
458.5000000000;20.1311798096
459.0000000000;20.5479679108
459.5000000000;20.9979267120
460.0000000000;21.4634914398
460.5000000000;21.9210777283
461.0000000000;22.3752079010
461.5000000000;22.8196620941
462.0000000000;23.2616939545
462.5000000000;23.7081699371
463.0000000000;24.1330051422
463.5000000000;24.5586528778
464.0000000000;25.0258789063
464.5000000000;25.5000896454
465.0000000000;25.9623889923
465.5000000000;26.4351749420
466.0000000000;26.9067325592
466.5000000000;27.3656406403
467.0000000000;27.8407344818
467.5000000000;28.3306312561
468.0000000000;28.8095836639
468.5000000000;29.2761840820
469.0000000000;29.7575912476
469.5000000000;30.2692298889
470.0000000000;30.7790374756
470.5000000000;31.2486495972
471.0000000000;31.7156372070
471.5000000000;32.2071876526
472.0000000000;32.6825408936
472.5000000000;33.1421356201
473.0000000000;33.6124801636
473.5000000000;34.0886802673
474.0000000000;34.5819816589
474.5000000000;35.0886497498
475.0000000000;35.5793952942
475.5000000000;36.0471801758
476.0000000000;36.5103645325
476.5000000000;36.9835014343
477.0000000000;37.4625244141
477.5000000000;37.9490661621
478.0000000000;38.4387359619
478.5000000000;38.9184036255
479.0000000000;39.3962020874
479.5000000000;39.8613395691
480.0000000000;40.3142700195
480.5000000000;40.7918701172
481.0000000000;41.2673149109
481.5000000000;41.7144012451
482.0000000000;42.1717643738
482.5000000000;42.6388206482
483.0000000000;43.0836868286
483.5000000000;43.5276451111
484.0000000000;43.9655303955
484.5000000000;44.3389701843
485.0000000000;44.7809638977
485.5000000000;45.3315010071
486.0000000000;45.6710205078
486.5000000000;45.8523902893
487.0000000000;46.2624816895
487.5000000000;46.9228668213
488.0000000000;47.4437980652
488.5000000000;47.8418655396
489.0000000000;48.2729454041
489.5000000000;48.6881523132
490.0000000000;49.0684928894
490.5000000000;49.4634284973
491.0000000000;49.8732681274
491.5000000000;50.2777099609
492.0000000000;50.6696853638
492.5000000000;51.0412292480
493.0000000000;51.3935661316
493.5000000000;51.7555885315
494.0000000000;52.1606826782
494.5000000000;52.5959167480
495.0000000000;53.0147857666
495.5000000000;53.3770446777
496.0000000000;53.7167472839
496.5000000000;54.0621833801
497.0000000000;54.3974037170
497.5000000000;54.7343139648
498.0000000000;55.0792732239
498.5000000000;55.4015693665
499.0000000000;55.6999473572
499.5000000000;56.0304870605
500.0000000000;56.3905563354
500.5000000000;56.7172431946
501.0000000000;57.0032501221
501.5000000000;57.2777023315
502.0000000000;57.5998229980
502.5000000000;57.9508438110
503.0000000000;58.2439193726
503.5000000000;58.5263977051
504.0000000000;58.8485755920
504.5000000000;59.1468582153
505.0000000000;59.4108047485
505.5000000000;59.6842613220
506.0000000000;59.9712257385
506.5000000000;60.2599906921
507.0000000000;60.5310249329
507.5000000000;60.7912406921
508.0000000000;61.0587959290
508.5000000000;61.3311233521
509.0000000000;61.6042327881
509.5000000000;61.8563919067
510.0000000000;62.0901947021
510.5000000000;62.3335380554
511.0000000000;62.5847702026
511.5000000000;62.8266601563
512.0000000000;63.0384140015
512.5000000000;63.2506103516
513.0000000000;63.5116119385
513.5000000000;63.7761459351
514.0000000000;64.0068817139
514.5000000000;64.2292556763
515.0000000000;64.4536514282
515.5000000000;64.6745529175
516.0000000000;64.8949966431
516.5000000000;65.1191024780
517.0000000000;65.3410110474
517.5000000000;65.5466613770
518.0000000000;65.7287292480
518.5000000000;65.9247512817
519.0000000000;66.1473083496
519.5000000000;66.3490524292
520.0000000000;66.5365982056
520.5000000000;66.7454986572
521.0000000000;66.9461441040
521.5000000000;67.1249389648
522.0000000000;67.3288040161
522.5000000000;67.5425262451
523.0000000000;67.7176513672
523.5000000000;67.8868255615
524.0000000000;68.0786056519
524.5000000000;68.2755584717
525.0000000000;68.4587554932
525.5000000000;68.6195068359
526.0000000000;68.7788009644
526.5000000000;68.9476470947
527.0000000000;69.1126174927
527.5000000000;69.2745285034
528.0000000000;69.4412078857
528.5000000000;69.6097564697
529.0000000000;69.7761917114
529.5000000000;69.9409179688
530.0000000000;70.1002197266
530.5000000000;70.2517318726
531.0000000000;70.4110794067
531.5000000000;70.5787506104
532.0000000000;70.7319564819
532.5000000000;70.8749847412
533.0000000000;71.0208740234
533.5000000000;71.1608200073
534.0000000000;71.2981643677
534.5000000000;71.4523162842
535.0000000000;71.6046371460
535.5000000000;71.7334976196
536.0000000000;71.8753356934
536.5000000000;72.0358963013
537.0000000000;72.1725921631
537.5000000000;72.2954864502
538.0000000000;72.4299316406
538.5000000000;72.5623092651
539.0000000000;72.6876296997
539.5000000000;72.8170623779
540.0000000000;72.9563369751
540.5000000000;73.1037368774
541.0000000000;73.2466583252
541.5000000000;73.3754348755
542.0000000000;73.4875030518
542.5000000000;73.6016921997
543.0000000000;73.7377166748
543.5000000000;73.8850708008
544.0000000000;74.0265426636
544.5000000000;74.1513137817
545.0000000000;74.2704467773
545.5000000000;74.3964538574
546.0000000000;74.5248413086
546.5000000000;74.6464538574
547.0000000000;74.7538070679
547.5000000000;74.8550796509
548.0000000000;74.9613342285
548.5000000000;75.0784378052
549.0000000000;75.2109985352
549.5000000000;75.3558425903
550.0000000000;75.4874114990
550.5000000000;75.5966110229
551.0000000000;75.7159423828
551.5000000000;75.8437194824
552.0000000000;75.9533691406
552.5000000000;76.0596160889
553.0000000000;76.1763992310
553.5000000000;76.2873764038
554.0000000000;76.3906402588
554.5000000000;76.4985275269
555.0000000000;76.6105346680
555.5000000000;76.7215118408
556.0000000000;76.8310699463
556.5000000000;76.9407653809
557.0000000000;77.0502014160
557.5000000000;77.1524658203
558.0000000000;77.2517242432
558.5000000000;77.3694076538
559.0000000000;77.4915771484
559.5000000000;77.5910110474
560.0000000000;77.6856231689
560.5000000000;77.7900238037
561.0000000000;77.8978958130
561.5000000000;77.9994583130
562.0000000000;78.0905532837
562.5000000000;78.1916046143
563.0000000000;78.3070526123
563.5000000000;78.4167404175
564.0000000000;78.5157089233
564.5000000000;78.6087341309
565.0000000000;78.7058639526
565.5000000000;78.8106155396
566.0000000000;78.9168701172
566.5000000000;79.0179595947
567.0000000000;79.1066894531
567.5000000000;79.1789550781
568.0000000000;79.2262802124
568.5000000000;79.2372817993
569.0000000000;79.2594299316
569.5000000000;79.3306350708
570.0000000000;79.4075241089
570.5000000000;79.4959945679
571.0000000000;79.6277847290
571.5000000000;79.7101974487
572.0000000000;79.7126159668
572.5000000000;79.7733993530
573.0000000000;79.8848114014
573.5000000000;79.9578552246
574.0000000000;80.0015563965
574.5000000000;80.0454406738
575.0000000000;80.0971908569
575.5000000000;80.1711044312
576.0000000000;80.2917098999
576.5000000000;80.4895019531
577.0000000000;80.6942977905
577.5000000000;80.6906204224
578.0000000000;80.6401214600
578.5000000000;80.8395690918
579.0000000000;81.1584930420
579.5000000000;81.3709869385
580.0000000000;81.3502120972
580.5000000000;81.2076416016
581.0000000000;81.1177597046
581.5000000000;81.0070266724
582.0000000000;80.9125747681
582.5000000000;81.0189590454
583.0000000000;81.2501907349
583.5000000000;81.3876113892
584.0000000000;81.3926086426
584.5000000000;81.3609313965
585.0000000000;81.4338378906
585.5000000000;81.5696792603
586.0000000000;81.6827163696
586.5000000000;81.7870941162
587.0000000000;81.8820037842
587.5000000000;81.9406433105
588.0000000000;81.9790878296
588.5000000000;82.0358657837
589.0000000000;82.1568374634
589.5000000000;82.3259582520
590.0000000000;82.4663619995
590.5000000000;82.5687484741
591.0000000000;82.6505813599
591.5000000000;82.7183837891
592.0000000000;82.7923812866
592.5000000000;82.8859863281
593.0000000000;82.9551849365
593.5000000000;83.0061492920
594.0000000000;83.1240234375
594.5000000000;83.2611694336
595.0000000000;83.3284988403
595.5000000000;83.4151229858
596.0000000000;83.5649337769
596.5000000000;83.6940002441
597.0000000000;83.7914123535
597.5000000000;83.8943099976
598.0000000000;84.0118103027
598.5000000000;84.1341857910
599.0000000000;84.2338027954
599.5000000000;84.3226470947
600.0000000000;84.4175567627
600.5000000000;84.4863815308
601.0000000000;84.5276107788
601.5000000000;84.5802917480
602.0000000000;84.6682891846
602.5000000000;84.7835083008
603.0000000000;84.8694229126
603.5000000000;84.9228363037
604.0000000000;84.9880371094
604.5000000000;85.0809555054
605.0000000000;85.1831893921
605.5000000000;85.2567062378
606.0000000000;85.3029022217
606.5000000000;85.3425445557
607.0000000000;85.3835067749
607.5000000000;85.4279937744
608.0000000000;85.4719696045
608.5000000000;85.5221252441
609.0000000000;85.5796279907
609.5000000000;85.5978546143
610.0000000000;85.5838012695
610.5000000000;85.6153793335
611.0000000000;85.6674270630
611.5000000000;85.6883316040
612.0000000000;85.7102432251
612.5000000000;85.7406692505
613.0000000000;85.7494659424
613.5000000000;85.7578201294
614.0000000000;85.7889099121
614.5000000000;85.8184509277
615.0000000000;85.8416061401
615.5000000000;85.8745498657
616.0000000000;85.9205551147
616.5000000000;85.9779434204
617.0000000000;86.0360412598
617.5000000000;86.0730514526
618.0000000000;86.0752716064
618.5000000000;86.0727615356
619.0000000000;86.0867156982
619.5000000000;86.1047515869
620.0000000000;86.1328582764
620.5000000000;86.1868515015
621.0000000000;86.2630233765
621.5000000000;86.3288192749
622.0000000000;86.3360519409
622.5000000000;86.3364257813
623.0000000000;86.3950347900
623.5000000000;86.4713363647
624.0000000000;86.5384979248
624.5000000000;86.6061096191
625.0000000000;86.6892547607
625.5000000000;86.7845458984
626.0000000000;86.8448257446
626.5000000000;86.8772201538
627.0000000000;86.9304275513
627.5000000000;86.9816818237
628.0000000000;87.0179367065
628.5000000000;87.0861129761
629.0000000000;87.1719360352
629.5000000000;87.2305450439
630.0000000000;87.2945404053
630.5000000000;87.3852920532
631.0000000000;87.4744415283
631.5000000000;87.5461273193
632.0000000000;87.5985336304
632.5000000000;87.6383438110
633.0000000000;87.6797485352
633.5000000000;87.7399978638
634.0000000000;87.8036880493
634.5000000000;87.8523635864
635.0000000000;87.9015884399
635.5000000000;87.9530105591
636.0000000000;87.9925994873
636.5000000000;88.0273590088
637.0000000000;88.0652618408
637.5000000000;88.0993804932
638.0000000000;88.1399612427
638.5000000000;88.2046356201
639.0000000000;88.2686996460
639.5000000000;88.3099899292
640.0000000000;88.3339385986
640.5000000000;88.3581466675
641.0000000000;88.3984680176
641.5000000000;88.4414291382
642.0000000000;88.4734344482
642.5000000000;88.4915161133
643.0000000000;88.4989242554
643.5000000000;88.5069732666
644.0000000000;88.5406799316
644.5000000000;88.5911178589
645.0000000000;88.6169509888
645.5000000000;88.6242675781
646.0000000000;88.6348419189
646.5000000000;88.6593780518
647.0000000000;88.6874542236
647.5000000000;88.6986923218
648.0000000000;88.7055358887
648.5000000000;88.7189102173
649.0000000000;88.7306137085
649.5000000000;88.7471694946
650.0000000000;88.7790298462
650.5000000000;88.8093719482
651.0000000000;88.8258514404
651.5000000000;88.8328247070
652.0000000000;88.8466873169
652.5000000000;88.8753128052
653.0000000000;88.8883590698
653.5000000000;88.9093780518
654.0000000000;88.9771118164
654.5000000000;88.8286514282
655.0000000000;88.4376220703
655.5000000000;88.6102676392
656.0000000000;88.6317367554
656.5000000000;87.9733200073
657.0000000000;87.3001403809
657.5000000000;88.4734802246
658.0000000000;89.3324890137
658.5000000000;89.1946945190
659.0000000000;89.2341918945
659.5000000000;89.3764953613
660.0000000000;89.4386520386
660.5000000000;89.4817428589
661.0000000000;89.5179977417
661.5000000000;89.5461196899
662.0000000000;89.6139068604
662.5000000000;89.7030105591
663.0000000000;89.7397460938
663.5000000000;89.7640380859
664.0000000000;89.8228607178
664.5000000000;89.8899536133
665.0000000000;89.9499740601
665.5000000000;90.0079650879
666.0000000000;90.0865936279
666.5000000000;90.1782226563
667.0000000000;90.2276153564
667.5000000000;90.2556304932
668.0000000000;90.3091125488
668.5000000000;90.3641586304
669.0000000000;90.4051895142
669.5000000000;90.4432373047
670.0000000000;90.4840621948
670.5000000000;90.5265426636
671.0000000000;90.5609893799
671.5000000000;90.5935974121
672.0000000000;90.6408538818
672.5000000000;90.6918716431
673.0000000000;90.7368469238
673.5000000000;90.7829742432
674.0000000000;90.8257827759
674.5000000000;90.8588714600
675.0000000000;90.9020233154
675.5000000000;90.9536514282
676.0000000000;90.9815292358
676.5000000000;91.0029830933
677.0000000000;91.0459213257
677.5000000000;91.0957489014
678.0000000000;91.1338119507
678.5000000000;91.1509933472
679.0000000000;91.1722640991
679.5000000000;91.2105865479
680.0000000000;91.2337341309
680.5000000000;91.2486343384
681.0000000000;91.2828369141
681.5000000000;91.3109664917
682.0000000000;91.3230590820
682.5000000000;91.3489990234
683.0000000000;91.3810043335
683.5000000000;91.3979339600
684.0000000000;91.4081954956
684.5000000000;91.4058837891
685.0000000000;91.3736419678
685.5000000000;91.3634185791
686.0000000000;91.4132003784
686.5000000000;91.4701461792
687.0000000000;91.4996490479
687.5000000000;91.5011215210
688.0000000000;91.5092926025
688.5000000000;91.5351562500
689.0000000000;91.5398025513
689.5000000000;91.5248413086
690.0000000000;91.5138778687
690.5000000000;91.5129470825
691.0000000000;91.5188522339
691.5000000000;91.5237808228
692.0000000000;91.5324401855
692.5000000000;91.5464782715
693.0000000000;91.5493087769
693.5000000000;91.5548019409
694.0000000000;91.5922622681
694.5000000000;91.6277160645
695.0000000000;91.6410293579
695.5000000000;91.6657791138
696.0000000000;91.6975708008
696.5000000000;91.7124481201
697.0000000000;91.7140502930
697.5000000000;91.7243118286
698.0000000000;91.7720794678
698.5000000000;91.8269271851
699.0000000000;91.8577346802
699.5000000000;91.8970718384
700.0000000000;91.9412307739
700.5000000000;91.9585876465
701.0000000000;91.9781112671
701.5000000000;92.0208435059
702.0000000000;92.0625991821
702.5000000000;92.0915069580
703.0000000000;92.1139450073
703.5000000000;92.1589889526
704.0000000000;92.2212753296
704.5000000000;92.2566833496
705.0000000000;92.2805099487
705.5000000000;92.3159790039
706.0000000000;92.3407363892
706.5000000000;92.3495407104
707.0000000000;92.3596801758
707.5000000000;92.3971252441
708.0000000000;92.4669265747
708.5000000000;92.5365524292
709.0000000000;92.5917739868
709.5000000000;92.6354522705
710.0000000000;92.6779251099
710.5000000000;92.7221603394
711.0000000000;92.7630538940
711.5000000000;92.8013458252
712.0000000000;92.8363342285
712.5000000000;92.8608093262
713.0000000000;92.8838500977
713.5000000000;92.9228668213
714.0000000000;92.9698028564
714.5000000000;93.0133819580
715.0000000000;93.0492248535
715.5000000000;93.0866622925
716.0000000000;93.1375808716
716.5000000000;93.1952514648
717.0000000000;93.2505035400
717.5000000000;93.2979125977
718.0000000000;93.3414001465
718.5000000000;93.3862991333
719.0000000000;93.4328765869
719.5000000000;93.4852218628
720.0000000000;93.5461425781
720.5000000000;93.5961837769
721.0000000000;93.6321334839
721.5000000000;93.6799468994
722.0000000000;93.7346954346
722.5000000000;93.7798995972
723.0000000000;93.8149719238
723.5000000000;93.8413696289
724.0000000000;93.8630905151
724.5000000000;93.8975524902
725.0000000000;93.9431533813
725.5000000000;93.9598770142
726.0000000000;93.9616241455
726.5000000000;93.9873275757
727.0000000000;94.0255889893
727.5000000000;94.0658035278
728.0000000000;94.1122894287
728.5000000000;94.1540222168
729.0000000000;94.1822738647
729.5000000000;94.2115402222
730.0000000000;94.2364807129
730.5000000000;94.2386474609
731.0000000000;94.2364196777
731.5000000000;94.2504272461
732.0000000000;94.2857742310
732.5000000000;94.3371276855
733.0000000000;94.3871002197
733.5000000000;94.4006423950
734.0000000000;94.3829879761
734.5000000000;94.3790969849
735.0000000000;94.3844528198
735.5000000000;94.3893508911
736.0000000000;94.4128036499
736.5000000000;94.4478302002
737.0000000000;94.4733123779
737.5000000000;94.5037994385
738.0000000000;94.5447845459
738.5000000000;94.5752487183
739.0000000000;94.5796890259
739.5000000000;94.5600051880
740.0000000000;94.5484237671
740.5000000000;94.5610504150
741.0000000000;94.5921783447
741.5000000000;94.6183166504
742.0000000000;94.6294784546
742.5000000000;94.6477890015
743.0000000000;94.6729278564
743.5000000000;94.6903762817
744.0000000000;94.6930236816
744.5000000000;94.6900100708
745.0000000000;94.7022094727
745.5000000000;94.7215270996
746.0000000000;94.7338790894
746.5000000000;94.7383270264
747.0000000000;94.7344055176
747.5000000000;94.7259292603
748.0000000000;94.7368927002
748.5000000000;94.7669525146
749.0000000000;94.7810668945
749.5000000000;94.7912673950
750.0000000000;94.8119888306
750.5000000000;94.8060913086
751.0000000000;94.7956542969
751.5000000000;94.8399124146
752.0000000000;94.8822631836
752.5000000000;94.8789138794
753.0000000000;94.8660583496
753.5000000000;94.8571929932
754.0000000000;94.8566360474
754.5000000000;94.8943328857
755.0000000000;94.9542465210
755.5000000000;94.9750289917
756.0000000000;94.9537353516
756.5000000000;94.9167861938
757.0000000000;94.8993988037
757.5000000000;94.9098358154
758.0000000000;94.9356689453
758.5000000000;94.9582519531
759.0000000000;94.9785232544
759.5000000000;95.0191802979
760.0000000000;95.0779037476
760.5000000000;95.1347427368
761.0000000000;95.1573638916
761.5000000000;95.1790924072
762.0000000000;95.2587356567
762.5000000000;95.3270797729
763.0000000000;95.3365783691
763.5000000000;95.3252792358
764.0000000000;95.3360290527
764.5000000000;95.3852233887
765.0000000000;95.4249343872
765.5000000000;95.4556579590
766.0000000000;95.5178985596
766.5000000000;95.5944671631
767.0000000000;95.6531524658
767.5000000000;95.6701583862
768.0000000000;95.6532516479
768.5000000000;95.6292877197
769.0000000000;95.6265411377
769.5000000000;95.6702880859
770.0000000000;95.7705459595
770.5000000000;95.8573684692
771.0000000000;95.8834915161
771.5000000000;95.9007568359
772.0000000000;95.9550628662
772.5000000000;96.0510864258
773.0000000000;96.0985336304
773.5000000000;96.0877990723
774.0000000000;96.1082611084
774.5000000000;96.1744689941
775.0000000000;96.2547912598
775.5000000000;96.2932739258
776.0000000000;96.2970046997
776.5000000000;96.3104324341
777.0000000000;96.3416748047
777.5000000000;96.3795547485
778.0000000000;96.4032363892
778.5000000000;96.4176025391
779.0000000000;96.4283981323
779.5000000000;96.4209671021
780.0000000000;96.4206848145
780.5000000000;96.4653472900
781.0000000000;96.5097427368
781.5000000000;96.5285263062
782.0000000000;96.5501480103
782.5000000000;96.5725860596
783.0000000000;96.5909194946
783.5000000000;96.6304626465
784.0000000000;96.6853561401
784.5000000000;96.7259140015
785.0000000000;96.7457199097
785.5000000000;96.7551574707
786.0000000000;96.7771301270
786.5000000000;96.8097305298
787.0000000000;96.8396835327
787.5000000000;96.8602676392
788.0000000000;96.8708877563
788.5000000000;96.8754806519
789.0000000000;96.8799438477
789.5000000000;96.8927536011
790.0000000000;96.9227828979
790.5000000000;96.9541091919
791.0000000000;96.9715499878
791.5000000000;96.9958190918
792.0000000000;97.0285339355
792.5000000000;97.0519256592
793.0000000000;97.0681304932
793.5000000000;97.0717163086
794.0000000000;97.0422821045
794.5000000000;97.0192260742
795.0000000000;97.0477828979
795.5000000000;97.0992584229
796.0000000000;97.1513671875
796.5000000000;97.1958007813
797.0000000000;97.2068939209
797.5000000000;97.1861190796
798.0000000000;97.1810836792
798.5000000000;97.1928787231
799.0000000000;97.2022094727
799.5000000000;97.2129135132
800.0000000000;97.2250595093
800.5000000000;97.2341156006
801.0000000000;97.2515640259
801.5000000000;97.2760696411
802.0000000000;97.2817840576
802.5000000000;97.2909851074
803.0000000000;97.3264770508
803.5000000000;97.3320922852
804.0000000000;97.3167190552
804.5000000000;97.3455429077
805.0000000000;97.3778381348
805.5000000000;97.3718261719
806.0000000000;97.3432617188
806.5000000000;97.3168334961
807.0000000000;97.3186950684
807.5000000000;97.3706054688
808.0000000000;97.4237136841
808.5000000000;97.3951644897
809.0000000000;97.3713226318
809.5000000000;97.4113693237
810.0000000000;97.4462432861
810.5000000000;97.4461059570
811.0000000000;97.4237365723
811.5000000000;97.4244613647
812.0000000000;97.4518585205
812.5000000000;97.4707946777
813.0000000000;97.4756851196
813.5000000000;97.4700393677
814.0000000000;97.4585876465
814.5000000000;97.4703979492
815.0000000000;97.5168914795
815.5000000000;97.5285720825
816.0000000000;97.5089492798
816.5000000000;97.5231323242
817.0000000000;97.5533142090
817.5000000000;97.5728607178
818.0000000000;97.5820693970
818.5000000000;97.5943145752
819.0000000000;97.6159667969
819.5000000000;97.6216964722
820.0000000000;97.6019897461
820.5000000000;97.5730056763
821.0000000000;97.5814666748
821.5000000000;97.6279144287
822.0000000000;97.6443710327
822.5000000000;97.6416091919
823.0000000000;97.6513290405
823.5000000000;97.6551437378
824.0000000000;97.6524887085
824.5000000000;97.6613159180
825.0000000000;97.6902694702
825.5000000000;97.7214508057
826.0000000000;97.7143096924
826.5000000000;97.6971588135
827.0000000000;97.7054748535
827.5000000000;97.7186584473
828.0000000000;97.7290039063
828.5000000000;97.7443847656
829.0000000000;97.7730941772
829.5000000000;97.8090362549
830.0000000000;97.8309402466
830.5000000000;97.8324508667
831.0000000000;97.8250656128
831.5000000000;97.8385848999
832.0000000000;97.8441162109
832.5000000000;97.8059234619
833.0000000000;97.8065643311
833.5000000000;97.8592605591
834.0000000000;97.8793106079
834.5000000000;97.8360900879
835.0000000000;97.7701110840
835.5000000000;97.7967910767
836.0000000000;97.8705673218
836.5000000000;97.8845672607
837.0000000000;97.8746337891
837.5000000000;97.8736877441
838.0000000000;97.8822402954
838.5000000000;97.8929672241
839.0000000000;97.8999023438
839.5000000000;97.9028625488
840.0000000000;97.9041213989
840.5000000000;97.9059143066
841.0000000000;97.9076309204
841.5000000000;97.9082260132
842.0000000000;97.9093551636
842.5000000000;97.9239883423
843.0000000000;97.9485473633
843.5000000000;97.9552536011
844.0000000000;97.9504089355
844.5000000000;97.9514923096
845.0000000000;97.9614181519
845.5000000000;97.9746780396
846.0000000000;97.9877090454
846.5000000000;98.0216751099
847.0000000000;98.0536041260
847.5000000000;98.0198898315
848.0000000000;97.9970245361
848.5000000000;98.0385971069
849.0000000000;98.0456695557
849.5000000000;98.0080108643
850.0000000000;97.9772720337
850.5000000000;97.9742660522
851.0000000000;97.9865570068
851.5000000000;97.9808654785
852.0000000000;97.9639739990
852.5000000000;97.9447097778
853.0000000000;97.9151916504
853.5000000000;97.8984756470
854.0000000000;97.9132156372
854.5000000000;97.9184570313
855.0000000000;97.9096221924
855.5000000000;97.9176712036
856.0000000000;97.9409713745
856.5000000000;97.9603652954
857.0000000000;97.9514541626
857.5000000000;97.9272689819
858.0000000000;97.9125137329
858.5000000000;97.9165267944
859.0000000000;97.9248657227
859.5000000000;97.9208450317
860.0000000000;97.9362487793
860.5000000000;97.9664306641
861.0000000000;97.9626922607
861.5000000000;97.9436492920
862.0000000000;97.9426269531
862.5000000000;97.9667053223
863.0000000000;97.9779891968
863.5000000000;97.9456558228
864.0000000000;97.9295196533
864.5000000000;97.9464721680
865.0000000000;97.9620132446
865.5000000000;97.9612197876
866.0000000000;97.9481124878
866.5000000000;97.9421844482
867.0000000000;97.9441986084
867.5000000000;97.9443969727
868.0000000000;97.9323196411
868.5000000000;97.9201354980
869.0000000000;97.9317398071
869.5000000000;97.9700393677
870.0000000000;98.0016708374
870.5000000000;97.9739379883
871.0000000000;97.9310989380
871.5000000000;97.9219665527
872.0000000000;97.9347991943
872.5000000000;97.9343185425
873.0000000000;97.9058227539
873.5000000000;97.9156494141
874.0000000000;97.9523239136
874.5000000000;97.9449234009
875.0000000000;97.9350967407
875.5000000000;97.9538574219
876.0000000000;97.9724655151
876.5000000000;97.9763107300
877.0000000000;97.9730834961
877.5000000000;97.9953994751
878.0000000000;98.0228118896
878.5000000000;98.0065231323
879.0000000000;97.9398803711
879.5000000000;97.8930664063
880.0000000000;97.9676208496
880.5000000000;98.0399093628
881.0000000000;98.0307846069
881.5000000000;98.0567169189
882.0000000000;98.0869674683
882.5000000000;98.0557403564
883.0000000000;98.0371170044
883.5000000000;98.0493316650
884.0000000000;98.0582046509
884.5000000000;98.0722503662
885.0000000000;98.0884017944
885.5000000000;98.0822525024
886.0000000000;98.0747680664
886.5000000000;98.0865783691
887.0000000000;98.1029586792
887.5000000000;98.1120300293
888.0000000000;98.1106491089
888.5000000000;98.1070480347
889.0000000000;98.0927276611
889.5000000000;98.0571823120
890.0000000000;98.0587692261
890.5000000000;98.1102447510
891.0000000000;98.1411743164
891.5000000000;98.1369857788
892.0000000000;98.1200408936
892.5000000000;98.1267623901
893.0000000000;98.1588592529
893.5000000000;98.1869125366
894.0000000000;98.1666336060
894.5000000000;98.1377258301
895.0000000000;98.1930007935
895.5000000000;98.2489929199
896.0000000000;98.2450561523
896.5000000000;98.2350769043
897.0000000000;98.2328796387
897.5000000000;98.2344818115
898.0000000000;98.2479705811
898.5000000000;98.2534942627
899.0000000000;98.2309722900
899.5000000000;98.2315979004
900.0000000000;98.2684936523
900.5000000000;98.3027877808
901.0000000000;98.3321075439
901.5000000000;98.3417816162
902.0000000000;98.2918319702
902.5000000000;98.2723770142
903.0000000000;98.3480834961
903.5000000000;98.3678741455
904.0000000000;98.3196334839
904.5000000000;98.2965621948
905.0000000000;98.2980270386
905.5000000000;98.3237457275
906.0000000000;98.3840637207
906.5000000000;98.4141998291
907.0000000000;98.3884582520
907.5000000000;98.3797988892
908.0000000000;98.3969421387
908.5000000000;98.4122619629
909.0000000000;98.4064941406
909.5000000000;98.4148864746
910.0000000000;98.4792251587
910.5000000000;98.5175170898
911.0000000000;98.4983444214
911.5000000000;98.4764556885
912.0000000000;98.5006179810
912.5000000000;98.5583953857
913.0000000000;98.5576629639
913.5000000000;98.5300598145
914.0000000000;98.5414199829
914.5000000000;98.5721664429
915.0000000000;98.5741195679
915.5000000000;98.5223770142
916.0000000000;98.5098571777
916.5000000000;98.5537719727
917.0000000000;98.5755920410
917.5000000000;98.5755233765
918.0000000000;98.5883026123
918.5000000000;98.6481628418
919.0000000000;98.6992416382
919.5000000000;98.6988372803
920.0000000000;98.7339706421
920.5000000000;98.7787628174
921.0000000000;98.7573394775
921.5000000000;98.7427444458
922.0000000000;98.7624511719
922.5000000000;98.7741775513
923.0000000000;98.7903213501
923.5000000000;98.8220214844
924.0000000000;98.8516159058
924.5000000000;98.8662338257
925.0000000000;98.8609619141
925.5000000000;98.8418731689
926.0000000000;98.8383102417
926.5000000000;98.8692092896
927.0000000000;98.8784179688
927.5000000000;98.8619995117
928.0000000000;98.8723220825
928.5000000000;98.9266967773
929.0000000000;98.9864120483
929.5000000000;98.9737625122
930.0000000000;98.9546890259
930.5000000000;98.9938201904
931.0000000000;99.0345840454
931.5000000000;99.0164489746
932.0000000000;98.9464874268
932.5000000000;98.9850997925
933.0000000000;99.0647506714
933.5000000000;98.9986114502
934.0000000000;98.9911956787
934.5000000000;99.0846099854
935.0000000000;99.0647048950
935.5000000000;99.0460891724
936.0000000000;99.1260375977
936.5000000000;99.1728591919
937.0000000000;99.1898727417
937.5000000000;99.2223434448
938.0000000000;99.2220993042
938.5000000000;99.1888580322
939.0000000000;99.1748809814
939.5000000000;99.2511749268
940.0000000000;99.3678665161
940.5000000000;99.3822555542
941.0000000000;99.3329544067
941.5000000000;99.3017196655
942.0000000000;99.3363189697
942.5000000000;99.3881301880
943.0000000000;99.4032211304
943.5000000000;99.4027481079
944.0000000000;99.4225158691
944.5000000000;99.4727783203
945.0000000000;99.4870223999
945.5000000000;99.4869155884
946.0000000000;99.5486526489
946.5000000000;99.6129608154
947.0000000000;99.6284255981
947.5000000000;99.6041412354
948.0000000000;99.6089553833
948.5000000000;99.6523895264
949.0000000000;99.6318664551
949.5000000000;99.5920257568
950.0000000000;99.6302413940
950.5000000000;99.7665481567
951.0000000000;99.8238296509
951.5000000000;99.6667938232
952.0000000000;99.6842498779
952.5000000000;99.9004974365
953.0000000000;99.9786605835
953.5000000000;99.9788055420
954.0000000000;99.9855957031
954.5000000000;99.9771575928
955.0000000000;100.0196838379
955.5000000000;100.1059265137
956.0000000000;100.0682983398
956.5000000000;100.0577316284
957.0000000000;100.2152786255
957.5000000000;100.2408142090
958.0000000000;100.2075729370
958.5000000000;100.3701782227
959.0000000000;100.4954376221
959.5000000000;100.4209136963
960.0000000000;100.2145233154
960.5000000000;100.1932907104
961.0000000000;100.4265213013
961.5000000000;100.5859909058
962.0000000000;100.5393829346
962.5000000000;100.3925933838
963.0000000000;100.4586486816
963.5000000000;100.5690155029
964.0000000000;100.5039901733
964.5000000000;100.5696792603
965.0000000000;100.7235488892
965.5000000000;100.7176895142
966.0000000000;100.6744995117
966.5000000000;100.6756896973
967.0000000000;100.6808319092
967.5000000000;100.6316146851
968.0000000000;100.5512695313
968.5000000000;100.5457534790
969.0000000000;100.5368270874
969.5000000000;100.4758682251
970.0000000000;100.4790344238
970.5000000000;100.5027923584
971.0000000000;100.4928436279
971.5000000000;100.5764999390
972.0000000000;100.7007980347
972.5000000000;100.7457733154
973.0000000000;100.8340148926
973.5000000000;100.8877258301
974.0000000000;100.7209930420
974.5000000000;100.6710128784
975.0000000000;100.8399505615
975.5000000000;100.9212799072
976.0000000000;100.9304809570
976.5000000000;100.9533767700
977.0000000000;100.9783401489
977.5000000000;100.9687728882
978.0000000000;100.8895416260
978.5000000000;100.7417144775
979.0000000000;100.7225494385
979.5000000000;100.9496917725
980.0000000000;100.9858703613
980.5000000000;100.8447952271
981.0000000000;100.8707656860
981.5000000000;100.9136734009
982.0000000000;100.8716278076
982.5000000000;100.8247833252
983.0000000000;100.8395767212
983.5000000000;100.9270858765
984.0000000000;101.0256805420
984.5000000000;101.0419692993
985.0000000000;100.9880676270
985.5000000000;101.0597305298
986.0000000000;101.1379089355
986.5000000000;101.0782623291
987.0000000000;101.0960159302
987.5000000000;101.1444168091
988.0000000000;101.0922393799
988.5000000000;101.2348098755
989.0000000000;101.4449768066
989.5000000000;101.3048477173
990.0000000000;101.1663513184
990.5000000000;101.2252578735
991.0000000000;101.2718887329
991.5000000000;101.2099380493
992.0000000000;101.1171722412
992.5000000000;101.2060470581
993.0000000000;101.2792892456
993.5000000000;101.2049255371
994.0000000000;101.3064041138
994.5000000000;101.4543838501
995.0000000000;101.3757400513
995.5000000000;101.1916809082
996.0000000000;101.0827255249
996.5000000000;101.1495361328
997.0000000000;101.2491149902
997.5000000000;101.3584289551
998.0000000000;101.5342407227
998.5000000000;101.5030517578
999.0000000000;101.3139572144
999.5000000000;101.3904800415
1000.0000000000;101.4993972778
1000.5000000000;101.4297790527
1001.0000000000;101.3644790649
1001.5000000000;101.4901962280
1002.0000000000;101.7352905273
1002.5000000000;101.6388015747
1003.0000000000;101.5251159668
1003.5000000000;101.7881469727
1004.0000000000;101.8745727539
1004.5000000000;101.6649627686
1005.0000000000;101.4691467285
1005.5000000000;101.6030807495
1006.0000000000;101.8216781616
1006.5000000000;101.6524505615
1007.0000000000;101.6945114136
1007.5000000000;101.9828567505
1008.0000000000;101.8369750977
1008.5000000000;101.6794128418
1009.0000000000;101.7520446777
1009.5000000000;101.6351776123
1010.0000000000;101.5281143188
1010.5000000000;101.6808166504
1011.0000000000;101.9376907349
1011.5000000000;101.9366073608
1012.0000000000;101.6311874390
1012.5000000000;101.7459106445
1013.0000000000;102.0989074707
1013.5000000000;102.1099853516
1014.0000000000;101.8875274658
1014.5000000000;101.6962356567
1015.0000000000;101.7513275146
1015.5000000000;101.9983291626
1016.0000000000;102.2348861694
1016.5000000000;102.2461776733
1017.0000000000;102.1355819702
1017.5000000000;102.0958023071
1018.0000000000;102.2311096191
1018.5000000000;102.1594085693
1019.0000000000;101.8431167603
1019.5000000000;101.8820114136
