182.5000000000;0.9744772911
183.0000000000;1.0116331577
183.5000000000;1.0261645317
184.0000000000;1.0227997303
184.5000000000;1.0347692966
185.0000000000;1.0989835262
185.5000000000;1.2051087618
186.0000000000;1.2871844769
186.5000000000;1.4296112061
187.0000000000;1.7019662857
187.5000000000;1.8998303413
188.0000000000;2.0249280930
188.5000000000;2.1958141327
189.0000000000;2.3716485500
189.5000000000;2.4606561661
190.0000000000;2.5044319630
190.5000000000;2.5747983456
191.0000000000;2.6627810001
191.5000000000;2.7114160061
192.0000000000;2.7252976894
192.5000000000;2.7310531139
193.0000000000;2.7510581017
193.5000000000;2.7925767899
194.0000000000;2.8547680378
194.5000000000;2.8803291321
195.0000000000;2.8370182514
195.5000000000;2.8159701824
196.0000000000;2.8473713398
196.5000000000;2.9099218845
197.0000000000;2.9665884972
197.5000000000;2.9820046425
198.0000000000;2.9970669746
198.5000000000;3.0355329514
199.0000000000;3.0775113106
199.5000000000;3.1012220383
200.0000000000;3.1000268459
200.5000000000;3.1222720146
201.0000000000;3.1789431572
201.5000000000;3.1869947910
202.0000000000;3.1697471142
202.5000000000;3.2189390659
203.0000000000;3.2761051655
203.5000000000;3.2568840981
204.0000000000;3.2298047543
204.5000000000;3.2358481884
205.0000000000;3.2649164200
205.5000000000;3.2957062721
206.0000000000;3.2986855507
206.5000000000;3.2639253139
207.0000000000;3.2096347809
207.5000000000;3.1746721268
208.0000000000;3.1628973484
208.5000000000;3.1595821381
209.0000000000;3.1701469421
209.5000000000;3.1903188229
210.0000000000;3.1702318192
210.5000000000;3.1196684837
211.0000000000;3.1021592617
211.5000000000;3.1224005222
212.0000000000;3.1615059376
212.5000000000;3.1902129650
213.0000000000;3.1746957302
213.5000000000;3.1055252552
214.0000000000;3.0729303360
214.5000000000;3.1617569923
215.0000000000;3.2519257069
215.5000000000;3.2116706371
216.0000000000;3.1921374798
216.5000000000;3.2359089851
217.0000000000;3.2867574692
217.5000000000;3.3138418198
218.0000000000;3.3142356873
218.5000000000;3.3209261894
219.0000000000;3.3388190269
219.5000000000;3.3370537758
220.0000000000;3.3325386047
220.5000000000;3.3534750938
221.0000000000;3.3678283691
221.5000000000;3.3579971790
222.0000000000;3.3594377041
222.5000000000;3.3791627884
223.0000000000;3.3961133957
223.5000000000;3.3789439201
224.0000000000;3.3289957047
224.5000000000;3.3155291080
225.0000000000;3.3436217308
225.5000000000;3.3461577892
226.0000000000;3.3161411285
226.5000000000;3.2835922241
227.0000000000;3.2655596733
227.5000000000;3.2658956051
228.0000000000;3.2743556499
228.5000000000;3.2800457478
229.0000000000;3.2730581760
229.5000000000;3.2498733997
230.0000000000;3.2254743576
230.5000000000;3.2399911880
231.0000000000;3.2627480030
231.5000000000;3.2101771832
232.0000000000;3.1641421318
232.5000000000;3.1949613094
233.0000000000;3.2397136688
233.5000000000;3.2405245304
234.0000000000;3.2023975849
234.5000000000;3.1938359737
235.0000000000;3.2658209801
235.5000000000;3.2842788696
236.0000000000;3.2012968063
236.5000000000;3.1915371418
237.0000000000;3.2605471611
237.5000000000;3.3114473820
238.0000000000;3.2924332619
238.5000000000;3.2330508232
239.0000000000;3.2291121483
239.5000000000;3.2752218246
240.0000000000;3.2812073231
240.5000000000;3.2697925568
241.0000000000;3.2857053280
241.5000000000;3.2701745033
242.0000000000;3.2291102409
242.5000000000;3.2512457371
243.0000000000;3.3130781651
243.5000000000;3.3294875622
244.0000000000;3.3335900307
244.5000000000;3.3539810181
245.0000000000;3.3363103867
245.5000000000;3.3068811893
246.0000000000;3.3345167637
246.5000000000;3.3342339993
247.0000000000;3.2472047806
247.5000000000;3.2132866383
248.0000000000;3.2468826771
248.5000000000;3.2423317432
249.0000000000;3.2205138206
249.5000000000;3.2442348003
250.0000000000;3.2533874512
250.5000000000;3.2136726379
251.0000000000;3.1843695641
251.5000000000;3.1630449295
252.0000000000;3.1223955154
252.5000000000;3.1097190380
253.0000000000;3.1448538303
253.5000000000;3.1471891403
254.0000000000;3.1142206192
254.5000000000;3.1217474937
255.0000000000;3.1373615265
255.5000000000;3.1077992916
256.0000000000;3.0667872429
256.5000000000;3.0494148731
257.0000000000;3.0718669891
257.5000000000;3.0732581615
258.0000000000;3.0008914471
258.5000000000;2.9796171188
259.0000000000;3.0419466496
259.5000000000;3.0500557423
260.0000000000;3.0022330284
260.5000000000;2.9941806793
261.0000000000;2.9888408184
261.5000000000;2.9536361694
262.0000000000;2.9312794209
262.5000000000;2.9234921932
263.0000000000;2.8993093967
263.5000000000;2.8616995811
264.0000000000;2.8162162304
264.5000000000;2.7480640411
265.0000000000;2.6808991432
265.5000000000;2.6549596786
266.0000000000;2.6370038986
266.5000000000;2.5892477036
267.0000000000;2.5496788025
267.5000000000;2.5294089317
268.0000000000;2.4982893467
268.5000000000;2.4661192894
269.0000000000;2.4545545578
269.5000000000;2.4373857975
270.0000000000;2.3997282982
270.5000000000;2.3664016724
271.0000000000;2.3430149555
271.5000000000;2.3197400570
272.0000000000;2.2900898457
272.5000000000;2.2538571358
273.0000000000;2.2202117443
273.5000000000;2.1894228458
274.0000000000;2.1541271210
274.5000000000;2.1183788776
275.0000000000;2.0870866776
275.5000000000;2.0528473854
276.0000000000;2.0144677162
276.5000000000;1.9806656837
277.0000000000;1.9520535469
277.5000000000;1.9245710373
278.0000000000;1.8956729174
278.5000000000;1.8653678894
279.0000000000;1.8371715546
279.5000000000;1.8128682375
280.0000000000;1.7920143604
280.5000000000;1.7703049183
281.0000000000;1.7451654673
281.5000000000;1.7217680216
282.0000000000;1.7014528513
282.5000000000;1.6804761887
283.0000000000;1.6577535868
283.5000000000;1.6339006424
284.0000000000;1.6105270386
284.5000000000;1.5886975527
285.0000000000;1.5681593418
285.5000000000;1.5477273464
286.0000000000;1.5264191628
286.5000000000;1.5055176020
287.0000000000;1.4858393669
287.5000000000;1.4663683176
288.0000000000;1.4484506845
288.5000000000;1.4346406460
289.0000000000;1.4212592840
289.5000000000;1.4054995775
290.0000000000;1.3918513060
290.5000000000;1.3814654350
291.0000000000;1.3713833094
291.5000000000;1.3609759808
292.0000000000;1.3510710001
292.5000000000;1.3433187008
293.0000000000;1.3376736641
293.5000000000;1.3318352699
294.0000000000;1.3252030611
294.5000000000;1.3185887337
295.0000000000;1.3138015270
295.5000000000;1.3110548258
296.0000000000;1.3076789379
296.5000000000;1.3037919998
297.0000000000;1.3013927937
297.5000000000;1.2997193336
298.0000000000;1.2977830172
298.5000000000;1.2961949110
299.0000000000;1.2951180935
299.5000000000;1.2942451239
300.0000000000;1.2945843935
300.5000000000;1.2966777086
301.0000000000;1.2980333567
301.5000000000;1.2983571291
302.0000000000;1.3005342484
302.5000000000;1.3044188023
303.0000000000;1.3080705404
303.5000000000;1.3097306490
304.0000000000;1.3103013039
304.5000000000;1.3143856525
305.0000000000;1.3202512264
305.5000000000;1.3229236603
306.0000000000;1.3257008791
306.5000000000;1.3316099644
307.0000000000;1.3377960920
307.5000000000;1.3427748680
308.0000000000;1.3470097780
308.5000000000;1.3510429859
309.0000000000;1.3555928469
309.5000000000;1.3617205620
310.0000000000;1.3683221340
310.5000000000;1.3722693920
311.0000000000;1.3761651516
311.5000000000;1.3836407661
312.0000000000;1.3909049034
312.5000000000;1.3957965374
313.0000000000;1.4010841846
313.5000000000;1.4073976278
314.0000000000;1.4137470722
314.5000000000;1.4196628332
315.0000000000;1.4253358841
315.5000000000;1.4318723679
316.0000000000;1.4386899471
316.5000000000;1.4439321756
317.0000000000;1.4477519989
317.5000000000;1.4514309168
318.0000000000;1.4569427967
318.5000000000;1.4635871649
319.0000000000;1.4681464434
319.5000000000;1.4717637300
320.0000000000;1.4766703844
320.5000000000;1.4817073345
321.0000000000;1.4860635996
321.5000000000;1.4902511835
322.0000000000;1.4942146540
322.5000000000;1.4977041483
323.0000000000;1.5012516975
323.5000000000;1.5051224232
324.0000000000;1.5088638067
324.5000000000;1.5125298500
325.0000000000;1.5163559914
325.5000000000;1.5194524527
326.0000000000;1.5215702057
326.5000000000;1.5243874788
327.0000000000;1.5280855894
327.5000000000;1.5314246416
328.0000000000;1.5341225863
328.5000000000;1.5365509987
329.0000000000;1.5397232771
329.5000000000;1.5439012051
330.0000000000;1.5481491089
330.5000000000;1.5499076843
331.0000000000;1.5477706194
331.5000000000;1.5459572077
332.0000000000;1.5475677252
332.5000000000;1.5526039600
333.0000000000;1.5577791929
333.5000000000;1.5596303940
334.0000000000;1.5613740683
334.5000000000;1.5648455620
335.0000000000;1.5673129559
335.5000000000;1.5687016249
336.0000000000;1.5707370043
336.5000000000;1.5733172894
337.0000000000;1.5764217377
337.5000000000;1.5810881853
338.0000000000;1.5853059292
338.5000000000;1.5855299234
339.0000000000;1.5855481625
339.5000000000;1.5892431736
340.0000000000;1.5944964886
340.5000000000;1.5986155272
341.0000000000;1.5998814106
341.5000000000;1.6014429331
342.0000000000;1.6067204475
342.5000000000;1.6137558222
343.0000000000;1.6194593906
343.5000000000;1.6213566065
344.0000000000;1.6233804226
344.5000000000;1.6298694611
345.0000000000;1.6345889568
345.5000000000;1.6356995106
346.0000000000;1.6406836510
346.5000000000;1.6488040686
347.0000000000;1.6548695564
347.5000000000;1.6600176096
348.0000000000;1.6663926840
348.5000000000;1.6745984554
349.0000000000;1.6820778847
349.5000000000;1.6855523586
350.0000000000;1.6912655830
350.5000000000;1.7019284964
351.0000000000;1.7062203884
351.5000000000;1.7057846785
352.0000000000;1.7135574818
352.5000000000;1.7260179520
353.0000000000;1.7351882458
353.5000000000;1.7398446798
354.0000000000;1.7435221672
354.5000000000;1.7527185678
355.0000000000;1.7655326128
355.5000000000;1.7768739462
356.0000000000;1.7853934765
356.5000000000;1.7922838926
357.0000000000;1.8007911444
357.5000000000;1.8106726408
358.0000000000;1.8194684982
358.5000000000;1.8243856430
359.0000000000;1.8264582157
359.5000000000;1.8336305618
360.0000000000;1.8502823114
360.5000000000;1.8707118034
361.0000000000;1.8835816383
361.5000000000;1.8896061182
362.0000000000;1.8977723122
362.5000000000;1.9088999033
363.0000000000;1.9174882174
363.5000000000;1.9269748926
364.0000000000;1.9400289059
364.5000000000;1.9485689402
365.0000000000;1.9561104774
365.5000000000;1.9760845900
366.0000000000;1.9950073957
366.5000000000;1.9979672432
367.0000000000;2.0059497356
367.5000000000;2.0248961449
368.0000000000;2.0373368263
368.5000000000;2.0433557034
369.0000000000;2.0514936447
369.5000000000;2.0631484985
370.0000000000;2.0760233402
370.5000000000;2.0849418640
371.0000000000;2.0909206867
371.5000000000;2.0984473228
372.0000000000;2.1088421345
372.5000000000;2.1210083961
373.0000000000;2.1311173439
373.5000000000;2.1382844448
374.0000000000;2.1442816257
374.5000000000;2.1517574787
375.0000000000;2.1597440243
375.5000000000;2.1608092785
376.0000000000;2.1630408764
376.5000000000;2.1824364662
377.0000000000;2.2033030987
377.5000000000;2.2089755535
378.0000000000;2.2121863365
378.5000000000;2.2176239491
379.0000000000;2.2202084064
379.5000000000;2.2287838459
380.0000000000;2.2477655411
380.5000000000;2.2530205250
381.0000000000;2.2450819016
381.5000000000;2.2541835308
382.0000000000;2.2754952908
382.5000000000;2.2872898579
383.0000000000;2.2768008709
383.5000000000;2.2621035576
384.0000000000;2.2868654728
384.5000000000;2.3198206425
385.0000000000;2.3063905239
385.5000000000;2.2940869331
386.0000000000;2.3046572208
386.5000000000;2.3014032841
387.0000000000;2.2974627018
387.5000000000;2.3225610256
388.0000000000;2.3401744366
388.5000000000;2.3267738819
389.0000000000;2.3132565022
389.5000000000;2.3103790283
390.0000000000;2.3115441799
390.5000000000;2.3044781685
391.0000000000;2.2895538807
391.5000000000;2.2896490097
392.0000000000;2.3016617298
392.5000000000;2.3044435978
393.0000000000;2.3008861542
393.5000000000;2.2986590862
394.0000000000;2.2983901501
394.5000000000;2.3008160591
395.0000000000;2.3049168587
395.5000000000;2.2930271626
396.0000000000;2.2626056671
396.5000000000;2.2554578781
397.0000000000;2.2698564529
397.5000000000;2.2642629147
398.0000000000;2.2546401024
398.5000000000;2.2650713921
399.0000000000;2.2763164043
399.5000000000;2.2724285126
400.0000000000;2.2527856827
400.5000000000;2.2345523834
401.0000000000;2.2322947979
401.5000000000;2.2315313816
402.0000000000;2.2247481346
402.5000000000;2.2200667858
403.0000000000;2.2210636139
403.5000000000;2.2233002186
404.0000000000;2.2052783966
404.5000000000;2.1737136841
405.0000000000;2.1677079201
405.5000000000;2.1780312061
406.0000000000;2.1743049622
406.5000000000;2.1537525654
407.0000000000;2.1277010441
407.5000000000;2.1153924465
408.0000000000;2.1073713303
408.5000000000;2.0840551853
409.0000000000;2.0675058365
409.5000000000;2.0683369637
410.0000000000;2.0639505386
410.5000000000;2.0474770069
411.0000000000;2.0267579556
411.5000000000;2.0095448494
412.0000000000;1.9979727268
412.5000000000;1.9845607281
413.0000000000;1.9687006474
413.5000000000;1.9533964396
414.0000000000;1.9345937967
414.5000000000;1.9117107391
415.0000000000;1.8943663836
415.5000000000;1.8825566769
416.0000000000;1.8674829006
416.5000000000;1.8485149145
417.0000000000;1.8290476799
417.5000000000;1.8121786118
418.0000000000;1.7963509560
418.5000000000;1.7768940926
419.0000000000;1.7563825846
419.5000000000;1.7389949560
420.0000000000;1.7227697372
420.5000000000;1.7061070204
421.0000000000;1.6893763542
421.5000000000;1.6716041565
422.0000000000;1.6520338058
422.5000000000;1.6343461275
423.0000000000;1.6189872026
423.5000000000;1.6016209126
424.0000000000;1.5822334290
424.5000000000;1.5618422031
425.0000000000;1.5412293673
425.5000000000;1.5225040913
426.0000000000;1.5054912567
426.5000000000;1.4885919094
427.0000000000;1.4719465971
427.5000000000;1.4548263550
428.0000000000;1.4362492561
428.5000000000;1.4182826281
429.0000000000;1.4002928734
429.5000000000;1.3816310167
430.0000000000;1.3649173975
430.5000000000;1.3496340513
431.0000000000;1.3322837353
431.5000000000;1.3138046265
432.0000000000;1.2973103523
432.5000000000;1.2813837528
433.0000000000;1.2644873857
433.5000000000;1.2478404045
434.0000000000;1.2329304218
434.5000000000;1.2181929350
435.0000000000;1.2020533085
435.5000000000;1.1860349178
436.0000000000;1.1710611582
436.5000000000;1.1562927961
437.0000000000;1.1409436464
437.5000000000;1.1259022951
438.0000000000;1.1119515896
438.5000000000;1.0983791351
439.0000000000;1.0844850540
439.5000000000;1.0699993372
440.0000000000;1.0560244322
440.5000000000;1.0430542231
441.0000000000;1.0297697783
441.5000000000;1.0169699192
442.0000000000;1.0045795441
442.5000000000;0.9915063977
443.0000000000;0.9783705473
443.5000000000;0.9657699466
444.0000000000;0.9537422657
444.5000000000;0.9419211149
445.0000000000;0.9301442504
445.5000000000;0.9184142947
446.0000000000;0.9069731832
446.5000000000;0.8957451582
447.0000000000;0.8840806484
447.5000000000;0.8724673390
448.0000000000;0.8617869616
448.5000000000;0.8513520956
449.0000000000;0.8408048749
449.5000000000;0.8304674029
450.0000000000;0.8202409744
450.5000000000;0.8098866940
451.0000000000;0.7993438840
451.5000000000;0.7889495492
452.0000000000;0.7792812586
452.5000000000;0.7700783014
453.0000000000;0.7607634068
453.5000000000;0.7513721585
454.0000000000;0.7421510816
454.5000000000;0.7333254218
455.0000000000;0.7245740891
455.5000000000;0.7155148983
456.0000000000;0.7066619992
456.5000000000;0.6982473731
457.0000000000;0.6899729371
457.5000000000;0.6816560030
458.0000000000;0.6732861996
458.5000000000;0.6653158069
459.0000000000;0.6576285362
459.5000000000;0.6498413086
460.0000000000;0.6417714357
460.5000000000;0.6332851648
461.0000000000;0.6252505183
461.5000000000;0.6182062626
462.0000000000;0.6111385822
462.5000000000;0.6037423611
463.0000000000;0.5967777371
463.5000000000;0.5902714729
464.0000000000;0.5835805535
464.5000000000;0.5766515136
465.0000000000;0.5697467923
465.5000000000;0.5628722310
466.0000000000;0.5561964512
466.5000000000;0.5497765541
467.0000000000;0.5431179404
467.5000000000;0.5363904238
468.0000000000;0.5301573277
468.5000000000;0.5242486596
469.0000000000;0.5181115270
469.5000000000;0.5115141869
470.0000000000;0.5050805211
470.5000000000;0.4995465875
471.0000000000;0.4941496551
471.5000000000;0.4882827401
472.0000000000;0.4824700952
472.5000000000;0.4770307243
473.0000000000;0.4719915688
473.5000000000;0.4668973386
474.0000000000;0.4613088965
474.5000000000;0.4557153285
475.0000000000;0.4504961967
475.5000000000;0.4454849362
476.0000000000;0.4406181574
476.5000000000;0.4358257651
477.0000000000;0.4309321046
477.5000000000;0.4259679019
478.0000000000;0.4211961329
478.5000000000;0.4166388512
479.0000000000;0.4120710194
479.5000000000;0.4075652361
480.0000000000;0.4031888247
480.5000000000;0.3987057209
481.0000000000;0.3943062127
481.5000000000;0.3901953399
482.0000000000;0.3861397505
482.5000000000;0.3820472062
483.0000000000;0.3779763877
483.5000000000;0.3738886714
484.0000000000;0.3700462878
484.5000000000;0.3670200109
485.0000000000;0.3631095588
485.5000000000;0.3575278223
486.0000000000;0.3544491529
486.5000000000;0.3538182378
487.0000000000;0.3508534729
487.5000000000;0.3450073898
488.0000000000;0.3407516778
488.5000000000;0.3377802372
489.0000000000;0.3343573809
489.5000000000;0.3309352398
490.0000000000;0.3278234005
490.5000000000;0.3247629404
491.0000000000;0.3215949237
491.5000000000;0.3183350563
492.0000000000;0.3151383698
492.5000000000;0.3121831417
493.0000000000;0.3095174432
493.5000000000;0.3067649007
494.0000000000;0.3036403954
494.5000000000;0.3005821109
495.0000000000;0.2977570593
495.5000000000;0.2949289680
496.0000000000;0.2921522558
496.5000000000;0.2895791829
497.0000000000;0.2871753871
497.5000000000;0.2847116292
498.0000000000;0.2820886970
498.5000000000;0.2796387374
499.0000000000;0.2774634063
499.5000000000;0.2751284838
500.0000000000;0.2726252675
500.5000000000;0.2703652978
501.0000000000;0.2682795227
501.5000000000;0.2661655545
502.0000000000;0.2638823390
502.5000000000;0.2614966333
503.0000000000;0.2593247890
503.5000000000;0.2572569251
504.0000000000;0.2550939322
504.5000000000;0.2529452145
505.0000000000;0.2509126961
505.5000000000;0.2489976138
506.0000000000;0.2470356971
506.5000000000;0.2449559122
507.0000000000;0.2429968864
507.5000000000;0.2411931753
508.0000000000;0.2394363880
508.5000000000;0.2376264930
509.0000000000;0.2356879562
509.5000000000;0.2337772846
510.0000000000;0.2320454568
510.5000000000;0.2304943353
511.0000000000;0.2288630158
511.5000000000;0.2270494848
512.0000000000;0.2253489345
512.5000000000;0.2237905711
513.0000000000;0.2222004086
513.5000000000;0.2204178572
514.0000000000;0.2185048759
514.5000000000;0.2169230580
515.0000000000;0.2155855894
515.5000000000;0.2140699625
516.0000000000;0.2124845386
516.5000000000;0.2109774202
517.0000000000;0.2095280290
517.5000000000;0.2081093192
518.0000000000;0.2066881508
518.5000000000;0.2052349299
519.0000000000;0.2037735730
519.5000000000;0.2023927867
520.0000000000;0.2010281235
520.5000000000;0.1995596290
521.0000000000;0.1981399357
521.5000000000;0.1968524009
522.0000000000;0.1955032647
522.5000000000;0.1941085756
523.0000000000;0.1928143948
523.5000000000;0.1914845407
524.0000000000;0.1900798380
524.5000000000;0.1888435632
525.0000000000;0.1877543628
525.5000000000;0.1866309196
526.0000000000;0.1854416877
526.5000000000;0.1842258424
527.0000000000;0.1830555797
527.5000000000;0.1818976402
528.0000000000;0.1806907505
528.5000000000;0.1795108020
529.0000000000;0.1783966422
529.5000000000;0.1772759855
530.0000000000;0.1761548370
530.5000000000;0.1750719249
531.0000000000;0.1739763021
531.5000000000;0.1728641838
532.0000000000;0.1718097776
532.5000000000;0.1707776189
533.0000000000;0.1697127521
533.5000000000;0.1686863601
534.0000000000;0.1677125394
534.5000000000;0.1667182893
535.0000000000;0.1656970382
535.5000000000;0.1646790206
536.0000000000;0.1636746377
536.5000000000;0.1626719981
537.0000000000;0.1616605520
537.5000000000;0.1606998742
538.0000000000;0.1598260850
538.5000000000;0.1589168459
539.0000000000;0.1579521447
539.5000000000;0.1570455134
540.0000000000;0.1561216265
540.5000000000;0.1550992727
541.0000000000;0.1541217268
541.5000000000;0.1532483548
542.0000000000;0.1524135023
542.5000000000;0.1515446007
543.0000000000;0.1505967528
543.5000000000;0.1496638060
544.0000000000;0.1487687677
544.5000000000;0.1478338540
545.0000000000;0.1469540894
545.5000000000;0.1461828947
546.0000000000;0.1453133076
546.5000000000;0.1443453729
547.0000000000;0.1434784979
547.5000000000;0.1427551359
548.0000000000;0.1420973241
548.5000000000;0.1413052231
549.0000000000;0.1403613538
549.5000000000;0.1394267082
550.0000000000;0.1385748982
550.5000000000;0.1377807260
551.0000000000;0.1369260401
551.5000000000;0.1360654682
552.0000000000;0.1353471428
552.5000000000;0.1346030980
553.0000000000;0.1337376088
553.5000000000;0.1329888552
554.0000000000;0.1323435605
554.5000000000;0.1316019148
555.0000000000;0.1307964474
555.5000000000;0.1300174147
556.0000000000;0.1292902827
556.5000000000;0.1285694093
557.0000000000;0.1278023273
557.5000000000;0.1270453781
558.0000000000;0.1263154298
558.5000000000;0.1255288273
559.0000000000;0.1247131154
559.5000000000;0.1239634007
560.0000000000;0.1232856289
560.5000000000;0.1226301193
561.0000000000;0.1219212711
561.5000000000;0.1211835146
562.0000000000;0.1204733029
562.5000000000;0.1197487935
563.0000000000;0.1189920828
563.5000000000;0.1182395443
564.0000000000;0.1175235882
564.5000000000;0.1168524176
565.0000000000;0.1161638349
565.5000000000;0.1154450998
566.0000000000;0.1147507951
566.5000000000;0.1140475944
567.0000000000;0.1133142412
567.5000000000;0.1126326770
568.0000000000;0.1120841056
568.5000000000;0.1117705703
569.0000000000;0.1117025241
569.5000000000;0.1116492078
570.0000000000;0.1109769717
570.5000000000;0.1099402979
571.0000000000;0.1096837670
571.5000000000;0.1104119197
572.0000000000;0.1109950840
572.5000000000;0.1097850502
573.0000000000;0.1075767204
573.5000000000;0.1063057482
574.0000000000;0.1060732007
574.5000000000;0.1062875912
575.0000000000;0.1060852185
575.5000000000;0.1053911671
576.0000000000;0.1045979783
576.5000000000;0.1033020318
577.0000000000;0.1018142402
577.5000000000;0.1017787382
578.0000000000;0.1021342576
578.5000000000;0.1007762998
579.0000000000;0.0984457806
579.5000000000;0.0967463106
580.0000000000;0.0968921334
580.5000000000;0.0980096981
581.0000000000;0.0986290053
581.5000000000;0.0993956923
582.0000000000;0.1001605317
582.5000000000;0.0996282399
583.0000000000;0.0982053131
583.5000000000;0.0972196236
584.0000000000;0.0969824865
584.5000000000;0.0970145836
585.0000000000;0.0965422839
585.5000000000;0.0957642496
586.0000000000;0.0951050147
586.5000000000;0.0944277793
587.0000000000;0.0937352479
587.5000000000;0.0932344049
588.0000000000;0.0928816423
588.5000000000;0.0924896821
589.0000000000;0.0918271095
589.5000000000;0.0909040794
590.0000000000;0.0900054425
590.5000000000;0.0892773345
591.0000000000;0.0887225047
591.5000000000;0.0882628113
592.0000000000;0.0877199844
592.5000000000;0.0869918391
593.0000000000;0.0864457861
593.5000000000;0.0860757455
594.0000000000;0.0852741897
594.5000000000;0.0843192115
595.0000000000;0.0838060156
595.5000000000;0.0832841396
596.0000000000;0.0824552253
596.5000000000;0.0816309601
597.0000000000;0.0809342638
597.5000000000;0.0802870914
598.0000000000;0.0795711502
598.5000000000;0.0787868425
599.0000000000;0.0781007484
599.5000000000;0.0774717405
600.0000000000;0.0768297240
600.5000000000;0.0763706788
601.0000000000;0.0760741755
601.5000000000;0.0756602511
602.0000000000;0.0750221387
602.5000000000;0.0742545053
603.0000000000;0.0736870244
603.5000000000;0.0733398423
604.0000000000;0.0729556382
604.5000000000;0.0724016875
605.0000000000;0.0717648193
605.5000000000;0.0713049322
606.0000000000;0.0709898174
606.5000000000;0.0706605613
607.0000000000;0.0703651085
607.5000000000;0.0701077282
608.0000000000;0.0697791055
608.5000000000;0.0694103315
609.0000000000;0.0691123009
609.5000000000;0.0689837709
610.0000000000;0.0689421445
610.5000000000;0.0687139109
611.0000000000;0.0684044734
611.5000000000;0.0682153404
612.0000000000;0.0680316612
612.5000000000;0.0678196251
613.0000000000;0.0676804557
613.5000000000;0.0675339773
614.0000000000;0.0673011690
614.5000000000;0.0670962557
615.0000000000;0.0669374689
615.5000000000;0.0667483956
616.0000000000;0.0665208772
616.5000000000;0.0662369803
617.0000000000;0.0658633411
617.5000000000;0.0655578896
618.0000000000;0.0654941499
618.5000000000;0.0654258952
619.0000000000;0.0651968569
619.5000000000;0.0649794936
620.0000000000;0.0648123249
620.5000000000;0.0645957142
621.0000000000;0.0641398802
621.5000000000;0.0635842085
622.0000000000;0.0634300262
622.5000000000;0.0634023026
623.0000000000;0.0630592555
623.5000000000;0.0626339763
624.0000000000;0.0622535273
624.5000000000;0.0618075170
625.0000000000;0.0612677298
625.5000000000;0.0607083961
626.0000000000;0.0603302903
626.5000000000;0.0600891523
627.0000000000;0.0597624891
627.5000000000;0.0594409965
628.0000000000;0.0591681823
628.5000000000;0.0587225631
629.0000000000;0.0581834912
629.5000000000;0.0577793792
630.0000000000;0.0573760010
630.5000000000;0.0568720289
631.0000000000;0.0563705489
631.5000000000;0.0559416041
632.0000000000;0.0555996038
632.5000000000;0.0552986003
633.0000000000;0.0549830757
633.5000000000;0.0546131097
634.0000000000;0.0542401932
634.5000000000;0.0539137088
635.0000000000;0.0535633639
635.5000000000;0.0532241762
636.0000000000;0.0530165248
636.5000000000;0.0528412722
637.0000000000;0.0525872707
637.5000000000;0.0522975214
638.0000000000;0.0520247184
638.5000000000;0.0517841615
639.0000000000;0.0514932945
639.5000000000;0.0511591956
640.0000000000;0.0509606265
640.5000000000;0.0508142747
641.0000000000;0.0505400375
641.5000000000;0.0502671488
642.0000000000;0.0500888415
642.5000000000;0.0499519594
643.0000000000;0.0498363525
643.5000000000;0.0497318655
644.0000000000;0.0495939218
644.5000000000;0.0494233295
645.0000000000;0.0492682084
645.5000000000;0.0491077788
646.0000000000;0.0489317589
646.5000000000;0.0488152206
647.0000000000;0.0487364493
647.5000000000;0.0486128330
648.0000000000;0.0485120267
648.5000000000;0.0484589897
649.0000000000;0.0483336709
649.5000000000;0.0481403619
650.0000000000;0.0479635708
650.5000000000;0.0478413887
651.0000000000;0.0477628112
651.5000000000;0.0476675853
652.0000000000;0.0475233756
652.5000000000;0.0473520868
653.0000000000;0.0472732596
653.5000000000;0.0471330583
654.0000000000;0.0467295349
654.5000000000;0.0474330336
655.0000000000;0.0488509275
655.5000000000;0.0466117337
656.0000000000;0.0461159050
656.5000000000;0.0501326174
657.0000000000;0.0548969992
657.5000000000;0.0490348786
658.0000000000;0.0444907062
658.5000000000;0.0452617779
659.0000000000;0.0449595861
659.5000000000;0.0441872105
660.0000000000;0.0439555496
660.5000000000;0.0436886288
661.0000000000;0.0433715284
661.5000000000;0.0431673005
662.0000000000;0.0428300388
662.5000000000;0.0423942320
663.0000000000;0.0421627238
663.5000000000;0.0419618189
664.0000000000;0.0415921584
664.5000000000;0.0411738679
665.0000000000;0.0408067554
665.5000000000;0.0405054353
666.0000000000;0.0401352644
666.5000000000;0.0396682769
667.0000000000;0.0392906480
667.5000000000;0.0390160345
668.0000000000;0.0387556255
668.5000000000;0.0384709276
669.0000000000;0.0381835476
669.5000000000;0.0379530936
670.0000000000;0.0377118923
670.5000000000;0.0374069214
671.0000000000;0.0371518917
671.5000000000;0.0369592831
672.0000000000;0.0367435701
672.5000000000;0.0365068950
673.0000000000;0.0362693705
673.5000000000;0.0360304825
674.0000000000;0.0357831717
674.5000000000;0.0355208926
675.0000000000;0.0352533944
675.5000000000;0.0350155644
676.0000000000;0.0348544531
676.5000000000;0.0346960127
677.0000000000;0.0344578102
677.5000000000;0.0342025980
678.0000000000;0.0340108722
678.5000000000;0.0339233465
679.0000000000;0.0338061303
679.5000000000;0.0335842110
680.0000000000;0.0334118232
680.5000000000;0.0332788453
681.0000000000;0.0330845863
681.5000000000;0.0329418294
682.0000000000;0.0328739807
682.5000000000;0.0327130556
683.0000000000;0.0325282440
683.5000000000;0.0324582905
684.0000000000;0.0324204974
684.5000000000;0.0324067026
685.0000000000;0.0324983448
685.5000000000;0.0325223245
686.0000000000;0.0323320217
686.5000000000;0.0320687220
687.0000000000;0.0318976827
687.5000000000;0.0319017991
688.0000000000;0.0318613276
688.5000000000;0.0316875800
689.0000000000;0.0316198468
689.5000000000;0.0316831656
690.0000000000;0.0317593962
690.5000000000;0.0317477584
691.0000000000;0.0316761583
691.5000000000;0.0316851176
692.0000000000;0.0316831917
692.5000000000;0.0315771736
693.0000000000;0.0315016322
693.5000000000;0.0314548127
694.0000000000;0.0313236639
694.5000000000;0.0311625190
695.0000000000;0.0310294461
695.5000000000;0.0308983754
696.0000000000;0.0307760984
696.5000000000;0.0306932516
697.0000000000;0.0306613911
697.5000000000;0.0306059141
698.0000000000;0.0303865615
698.5000000000;0.0301006548
699.0000000000;0.0298870988
699.5000000000;0.0297087152
700.0000000000;0.0295378324
700.5000000000;0.0293720104
701.0000000000;0.0291668661
701.5000000000;0.0289263707
702.0000000000;0.0287507419
702.5000000000;0.0286229290
703.0000000000;0.0284580849
703.5000000000;0.0282223374
704.0000000000;0.0279441215
704.5000000000;0.0276990812
705.0000000000;0.0274787098
705.5000000000;0.0272772107
706.0000000000;0.0271811429
706.5000000000;0.0271264482
707.0000000000;0.0269507542
707.5000000000;0.0266978424
708.0000000000;0.0264225528
708.5000000000;0.0261035841
709.0000000000;0.0257755257
709.5000000000;0.0254913587
710.0000000000;0.0252551660
710.5000000000;0.0250516348
711.0000000000;0.0248477757
711.5000000000;0.0246115793
712.0000000000;0.0243648905
712.5000000000;0.0242287405
713.0000000000;0.0241458844
713.5000000000;0.0239510108
714.0000000000;0.0236974433
714.5000000000;0.0234584659
715.0000000000;0.0232423358
715.5000000000;0.0230242666
716.0000000000;0.0227664337
716.5000000000;0.0224593282
717.0000000000;0.0221466385
717.5000000000;0.0219008252
718.0000000000;0.0216764156
718.5000000000;0.0214263219
719.0000000000;0.0211949609
719.5000000000;0.0209504422
720.0000000000;0.0206315760
720.5000000000;0.0203483645
721.0000000000;0.0201476645
721.5000000000;0.0199275948
722.0000000000;0.0196865480
722.5000000000;0.0194633696
723.0000000000;0.0192492083
723.5000000000;0.0190568585
724.0000000000;0.0189087503
724.5000000000;0.0187459141
725.0000000000;0.0185613502
725.5000000000;0.0184764136
726.0000000000;0.0184146892
726.5000000000;0.0182245020
727.0000000000;0.0180007797
727.5000000000;0.0178168621
728.0000000000;0.0176410154
728.5000000000;0.0174569543
729.0000000000;0.0172667447
729.5000000000;0.0170909911
730.0000000000;0.0169730093
730.5000000000;0.0169532876
731.0000000000;0.0169591904
731.5000000000;0.0169009026
732.0000000000;0.0167258829
732.5000000000;0.0164843053
733.0000000000;0.0162865203
733.5000000000;0.0162295587
734.0000000000;0.0162800401
734.5000000000;0.0162922312
735.0000000000;0.0162844677
735.5000000000;0.0162707344
736.0000000000;0.0161320996
736.5000000000;0.0159228835
737.0000000000;0.0157945678
737.5000000000;0.0156987738
738.0000000000;0.0155674815
738.5000000000;0.0154002644
739.0000000000;0.0153349806
739.5000000000;0.0154490164
740.0000000000;0.0155180534
740.5000000000;0.0154513866
741.0000000000;0.0153198279
741.5000000000;0.0151931588
742.0000000000;0.0151111400
742.5000000000;0.0150583517
743.0000000000;0.0150078377
743.5000000000;0.0149459532
744.0000000000;0.0149072940
744.5000000000;0.0148775838
745.0000000000;0.0147983832
745.5000000000;0.0147540215
746.0000000000;0.0147866551
746.5000000000;0.0147405257
747.0000000000;0.0146617396
747.5000000000;0.0146889370
748.0000000000;0.0146622816
748.5000000000;0.0145254005
749.0000000000;0.0144423284
749.5000000000;0.0143783800
750.0000000000;0.0142796813
750.5000000000;0.0142951552
751.0000000000;0.0143276248
751.5000000000;0.0141286589
752.0000000000;0.0139372461
752.5000000000;0.0139447590
753.0000000000;0.0140128331
753.5000000000;0.0140558323
754.0000000000;0.0140259890
754.5000000000;0.0138378497
755.0000000000;0.0135690738
755.5000000000;0.0134496810
756.0000000000;0.0135151418
756.5000000000;0.0136679150
757.0000000000;0.0137211997
757.5000000000;0.0136494320
758.0000000000;0.0135381036
758.5000000000;0.0134522952
759.0000000000;0.0133517301
759.5000000000;0.0131067494
760.0000000000;0.0128178131
760.5000000000;0.0126246447
761.0000000000;0.0125290900
761.5000000000;0.0123698544
762.0000000000;0.0119812815
762.5000000000;0.0116977496
763.0000000000;0.0116807958
763.5000000000;0.0116588203
764.0000000000;0.0115312980
764.5000000000;0.0113356998
765.0000000000;0.0111878887
765.5000000000;0.0110162403
766.0000000000;0.0106456419
766.5000000000;0.0102590704
767.0000000000;0.0100375134
767.5000000000;0.0099719428
768.0000000000;0.0100180516
768.5000000000;0.0101002585
769.0000000000;0.0100927697
769.5000000000;0.0098910844
770.0000000000;0.0094619747
770.5000000000;0.0090470640
771.0000000000;0.0088297399
771.5000000000;0.0086788926
772.0000000000;0.0084481630
772.5000000000;0.0080988584
773.0000000000;0.0078758476
773.5000000000;0.0078012375
774.0000000000;0.0076281545
774.5000000000;0.0073538227
775.0000000000;0.0070635159
775.5000000000;0.0068156291
776.0000000000;0.0066949069
776.5000000000;0.0067228116
777.0000000000;0.0066247866
777.5000000000;0.0063545960
778.0000000000;0.0061941305
778.5000000000;0.0061471066
779.0000000000;0.0061155451
779.5000000000;0.0060647889
780.0000000000;0.0059632156
780.5000000000;0.0057994770
781.0000000000;0.0056641377
781.5000000000;0.0055717323
782.0000000000;0.0054181749
782.5000000000;0.0052985987
783.0000000000;0.0052761142
783.5000000000;0.0051165861
784.0000000000;0.0048210439
784.5000000000;0.0045887269
785.0000000000;0.0044862577
785.5000000000;0.0044549536
786.0000000000;0.0043314481
786.5000000000;0.0041559278
787.0000000000;0.0040248726
787.5000000000;0.0039014218
788.0000000000;0.0038222673
788.5000000000;0.0038583814
789.0000000000;0.0038454852
789.5000000000;0.0036964824
790.0000000000;0.0035354234
790.5000000000;0.0034185410
791.0000000000;0.0033371744
791.5000000000;0.0032355252
792.0000000000;0.0030908410
792.5000000000;0.0029312717
793.0000000000;0.0028417390
793.5000000000;0.0028891775
794.0000000000;0.0030645754
794.5000000000;0.0031538417
795.0000000000;0.0029754778
795.5000000000;0.0027260033
796.0000000000;0.0025183323
796.5000000000;0.0023446791
797.0000000000;0.0022980401
797.5000000000;0.0023658981
798.0000000000;0.0023444148
798.5000000000;0.0022774793
799.0000000000;0.0022753847
799.5000000000;0.0022139035
800.0000000000;0.0020908320
800.5000000000;0.0020317289
801.0000000000;0.0020043056
801.5000000000;0.0019636259
802.0000000000;0.0019249897
802.5000000000;0.0018571557
803.0000000000;0.0017399489
803.5000000000;0.0016636198
804.0000000000;0.0016251233
804.5000000000;0.0015431108
805.0000000000;0.0014893701
805.5000000000;0.0015311330
806.0000000000;0.0016349911
806.5000000000;0.0016797369
807.0000000000;0.0015771103
807.5000000000;0.0014595091
808.0000000000;0.0014172771
808.5000000000;0.0014354996
809.0000000000;0.0013795188
809.5000000000;0.0012066136
810.0000000000;0.0010823919
810.5000000000;0.0011230251
811.0000000000;0.0012952164
811.5000000000;0.0012885861
812.0000000000;0.0010867814
812.5000000000;0.0009550423
813.0000000000;0.0009534147
813.5000000000;0.0010218784
814.0000000000;0.0010338095
814.5000000000;0.0009588070
815.0000000000;0.0008594797
815.5000000000;0.0008894933
816.0000000000;0.0009595545
816.5000000000;0.0008292035
817.0000000000;0.0006490690
817.5000000000;0.0005630694
818.0000000000;0.0005221636
818.5000000000;0.0004715314
819.0000000000;0.0003932893
819.5000000000;0.0003503363
820.0000000000;0.0004054929
820.5000000000;0.0005522718
821.0000000000;0.0005375433
821.5000000000;0.0003113878
822.0000000000;0.0001756328
822.5000000000;0.0001474828
823.0000000000;0.0001296349
823.5000000000;0.0001290277
824.0000000000;0.0001388671
824.5000000000;0.0001246132
825.0000000000;0.0000387402
825.5000000000;-0.0000941456
826.0000000000;-0.0001576444
826.5000000000;-0.0000961608
827.0000000000;0.0000219059
827.5000000000;-0.0000540542
828.0000000000;-0.0002745988
828.5000000000;-0.0004124336
829.0000000000;-0.0004913386
829.5000000000;-0.0005678105
830.0000000000;-0.0006570572
830.5000000000;-0.0007293767
831.0000000000;-0.0007608189
831.5000000000;-0.0007751400
832.0000000000;-0.0007615831
832.5000000000;-0.0007117186
833.0000000000;-0.0007171970
833.5000000000;-0.0008229439
834.0000000000;-0.0009598348
834.5000000000;-0.0008482012
835.0000000000;-0.0005168027
835.5000000000;-0.0006126513
836.0000000000;-0.0009350882
836.5000000000;-0.0009658338
837.0000000000;-0.0009834436
837.5000000000;-0.0010862628
838.0000000000;-0.0010910748
838.5000000000;-0.0011067215
839.0000000000;-0.0011819701
839.5000000000;-0.0011350386
840.0000000000;-0.0010621179
840.5000000000;-0.0011047679
841.0000000000;-0.0011013944
841.5000000000;-0.0010882757
842.0000000000;-0.0012320814
842.5000000000;-0.0012916641
843.0000000000;-0.0012165358
843.5000000000;-0.0013353383
844.0000000000;-0.0014960704
844.5000000000;-0.0014782501
845.0000000000;-0.0014533112
845.5000000000;-0.0014699397
846.0000000000;-0.0014817829
846.5000000000;-0.0015991842
847.0000000000;-0.0017602923
847.5000000000;-0.0017086698
848.0000000000;-0.0016315544
848.5000000000;-0.0017050847
849.0000000000;-0.0017321623
849.5000000000;-0.0017046768
850.0000000000;-0.0017213683
850.5000000000;-0.0017240385
851.0000000000;-0.0016634212
851.5000000000;-0.0015467780
852.0000000000;-0.0014506511
852.5000000000;-0.0014037587
853.0000000000;-0.0013312643
853.5000000000;-0.0012544154
854.0000000000;-0.0012384097
854.5000000000;-0.0013074790
855.0000000000;-0.0014086294
855.5000000000;-0.0014498356
856.0000000000;-0.0014317187
856.5000000000;-0.0014257376
857.0000000000;-0.0015273519
857.5000000000;-0.0015468786
858.0000000000;-0.0013922068
858.5000000000;-0.0014466263
859.0000000000;-0.0015355892
859.5000000000;-0.0012919776
860.0000000000;-0.0012871501
860.5000000000;-0.0015804922
861.0000000000;-0.0015398087
861.5000000000;-0.0014481115
862.0000000000;-0.0015805858
862.5000000000;-0.0015825485
863.0000000000;-0.0015141790
863.5000000000;-0.0015871665
864.0000000000;-0.0016226054
864.5000000000;-0.0015657087
865.0000000000;-0.0015243322
865.5000000000;-0.0015137502
866.0000000000;-0.0015026553
866.5000000000;-0.0014552707
867.0000000000;-0.0014838595
867.5000000000;-0.0016120434
868.0000000000;-0.0015277829
868.5000000000;-0.0013538360
869.0000000000;-0.0014392179
869.5000000000;-0.0016180837
870.0000000000;-0.0017044058
870.5000000000;-0.0016542266
871.0000000000;-0.0015463524
871.5000000000;-0.0014870507
872.0000000000;-0.0015340716
872.5000000000;-0.0015283774
873.0000000000;-0.0013726063
873.5000000000;-0.0014638291
874.0000000000;-0.0016834128
874.5000000000;-0.0015614532
875.0000000000;-0.0015349193
875.5000000000;-0.0017846018
876.0000000000;-0.0018259231
876.5000000000;-0.0017181474
877.0000000000;-0.0016924755
877.5000000000;-0.0017460024
878.0000000000;-0.0017994953
878.5000000000;-0.0017633132
879.0000000000;-0.0016276119
879.5000000000;-0.0015659351
880.0000000000;-0.0018195568
880.5000000000;-0.0020187635
881.0000000000;-0.0019766071
881.5000000000;-0.0021188525
882.0000000000;-0.0022746476
882.5000000000;-0.0021486797
883.0000000000;-0.0020368788
883.5000000000;-0.0020563875
884.0000000000;-0.0021336770
884.5000000000;-0.0023162493
885.0000000000;-0.0024823414
885.5000000000;-0.0023534757
886.0000000000;-0.0022532602
886.5000000000;-0.0024051710
887.0000000000;-0.0024235698
887.5000000000;-0.0023140016
888.0000000000;-0.0022976655
888.5000000000;-0.0023922061
889.0000000000;-0.0024727217
889.5000000000;-0.0023858375
890.0000000000;-0.0023003074
890.5000000000;-0.0023814174
891.0000000000;-0.0026202674
891.5000000000;-0.0026838789
892.0000000000;-0.0024603074
892.5000000000;-0.0025293988
893.0000000000;-0.0027884210
893.5000000000;-0.0027832326
894.0000000000;-0.0026373561
894.5000000000;-0.0025896630
895.0000000000;-0.0027845507
895.5000000000;-0.0028965340
896.0000000000;-0.0028130179
896.5000000000;-0.0028991357
897.0000000000;-0.0030327297
897.5000000000;-0.0030040089
898.0000000000;-0.0029817664
898.5000000000;-0.0030156325
899.0000000000;-0.0030444590
899.5000000000;-0.0030626818
900.0000000000;-0.0031311538
900.5000000000;-0.0033186723
901.0000000000;-0.0034237022
901.5000000000;-0.0033521336
902.0000000000;-0.0033063940
902.5000000000;-0.0033687870
903.0000000000;-0.0034950699
903.5000000000;-0.0035207442
904.0000000000;-0.0034121405
904.5000000000;-0.0032818380
905.0000000000;-0.0033439696
905.5000000000;-0.0036009140
906.0000000000;-0.0038097606
906.5000000000;-0.0038406707
907.0000000000;-0.0037301104
907.5000000000;-0.0036854357
908.0000000000;-0.0037123114
908.5000000000;-0.0037423649
909.0000000000;-0.0038055873
909.5000000000;-0.0039597158
910.0000000000;-0.0041988995
910.5000000000;-0.0042647710
911.0000000000;-0.0041649779
911.5000000000;-0.0042029205
912.0000000000;-0.0043360521
912.5000000000;-0.0044524735
913.0000000000;-0.0045308941
913.5000000000;-0.0045232861
914.0000000000;-0.0044478159
914.5000000000;-0.0045018550
915.0000000000;-0.0045466335
915.5000000000;-0.0043450100
916.0000000000;-0.0042525274
916.5000000000;-0.0043415511
917.0000000000;-0.0043300027
917.5000000000;-0.0044474625
918.0000000000;-0.0048151729
918.5000000000;-0.0051219836
919.0000000000;-0.0052037332
919.5000000000;-0.0051467442
920.0000000000;-0.0053517232
920.5000000000;-0.0056238985
921.0000000000;-0.0055210022
921.5000000000;-0.0053161043
922.0000000000;-0.0052473666
922.5000000000;-0.0053497376
923.0000000000;-0.0056254063
923.5000000000;-0.0059102559
924.0000000000;-0.0058653681
924.5000000000;-0.0056603770
925.0000000000;-0.0056276713
925.5000000000;-0.0058807540
926.0000000000;-0.0060490314
926.5000000000;-0.0057744500
927.0000000000;-0.0056617418
927.5000000000;-0.0058974517
928.0000000000;-0.0061212489
928.5000000000;-0.0061173225
929.0000000000;-0.0059887595
929.5000000000;-0.0061238012
930.0000000000;-0.0063365628
930.5000000000;-0.0064603481
931.0000000000;-0.0067797215
931.5000000000;-0.0069142291
932.0000000000;-0.0065385615
932.5000000000;-0.0065948446
933.0000000000;-0.0070534390
933.5000000000;-0.0070985560
934.0000000000;-0.0068649594
934.5000000000;-0.0066592833
935.0000000000;-0.0066797715
935.5000000000;-0.0069582062
936.0000000000;-0.0073639685
936.5000000000;-0.0076100524
937.0000000000;-0.0075261351
937.5000000000;-0.0072722808
938.0000000000;-0.0075277812
938.5000000000;-0.0078161303
939.0000000000;-0.0073532052
939.5000000000;-0.0073496350
940.0000000000;-0.0080591319
940.5000000000;-0.0084599685
941.0000000000;-0.0083159767
941.5000000000;-0.0079416865
942.0000000000;-0.0079620183
942.5000000000;-0.0082529439
943.0000000000;-0.0084607629
943.5000000000;-0.0084885834
944.0000000000;-0.0084604397
944.5000000000;-0.0085463021
945.0000000000;-0.0087101460
945.5000000000;-0.0088808946
946.0000000000;-0.0090177832
946.5000000000;-0.0091972584
947.0000000000;-0.0094198231
947.5000000000;-0.0095610535
948.0000000000;-0.0095123127
948.5000000000;-0.0093517052
949.0000000000;-0.0094052283
949.5000000000;-0.0096443333
950.0000000000;-0.0099107688
950.5000000000;-0.0101637701
951.0000000000;-0.0101056583
951.5000000000;-0.0096302256
952.0000000000;-0.0097787678
952.5000000000;-0.0106400987
953.0000000000;-0.0113059627
953.5000000000;-0.0114889545
954.0000000000;-0.0113664800
954.5000000000;-0.0113881808
955.0000000000;-0.0114033846
955.5000000000;-0.0112705957
956.0000000000;-0.0112753976
956.5000000000;-0.0114798481
957.0000000000;-0.0117380824
957.5000000000;-0.0117907114
958.0000000000;-0.0118339686
958.5000000000;-0.0121889021
959.0000000000;-0.0124278003
959.5000000000;-0.0123778619
960.0000000000;-0.0122874826
960.5000000000;-0.0124350563
961.0000000000;-0.0129148830
961.5000000000;-0.0134844491
962.0000000000;-0.0133764911
962.5000000000;-0.0126483403
963.0000000000;-0.0129276952
963.5000000000;-0.0134128360
964.0000000000;-0.0129914396
964.5000000000;-0.0131477062
965.0000000000;-0.0136906225
965.5000000000;-0.0135577861
966.0000000000;-0.0138156097
966.5000000000;-0.0142799988
967.0000000000;-0.0136756515
967.5000000000;-0.0133992266
968.0000000000;-0.0141296489
968.5000000000;-0.0146697890
969.0000000000;-0.0144596267
969.5000000000;-0.0138506843
970.0000000000;-0.0140332365
970.5000000000;-0.0142350765
971.0000000000;-0.0136689777
971.5000000000;-0.0139290011
972.0000000000;-0.0147166355
972.5000000000;-0.0147199817
973.0000000000;-0.0144415926
973.5000000000;-0.0143704060
974.0000000000;-0.0145782176
974.5000000000;-0.0148707815
975.0000000000;-0.0150232492
975.5000000000;-0.0149355261
976.0000000000;-0.0149859637
976.5000000000;-0.0153345447
977.0000000000;-0.0155486790
977.5000000000;-0.0155278072
978.0000000000;-0.0154378191
978.5000000000;-0.0155596836
979.0000000000;-0.0156750139
979.5000000000;-0.0154196080
980.0000000000;-0.0149856340
980.5000000000;-0.0149314441
981.0000000000;-0.0156021379
981.5000000000;-0.0157341994
982.0000000000;-0.0151805626
982.5000000000;-0.0151513675
983.0000000000;-0.0154405506
983.5000000000;-0.0155293923
984.0000000000;-0.0152695393
984.5000000000;-0.0154631417
985.0000000000;-0.0162743367
985.5000000000;-0.0161811933
986.0000000000;-0.0157628432
986.5000000000;-0.0161922704
987.0000000000;-0.0169873275
987.5000000000;-0.0168853961
988.0000000000;-0.0155259576
988.5000000000;-0.0164013915
989.0000000000;-0.0182912126
989.5000000000;-0.0168662164
990.0000000000;-0.0160039887
990.5000000000;-0.0170695186
991.0000000000;-0.0166724622
991.5000000000;-0.0159751885
992.0000000000;-0.0164899528
992.5000000000;-0.0175945628
993.0000000000;-0.0179327186
993.5000000000;-0.0172365028
994.0000000000;-0.0175773762
994.5000000000;-0.0183718596
995.0000000000;-0.0180744212
995.5000000000;-0.0170949660
996.0000000000;-0.0164180510
996.5000000000;-0.0166731924
997.0000000000;-0.0167593062
997.5000000000;-0.0169500448
998.0000000000;-0.0183104221
998.5000000000;-0.0184326246
999.0000000000;-0.0171247721
999.5000000000;-0.0173026472
1000.0000000000;-0.0181518495
1000.5000000000;-0.0181896295
1001.0000000000;-0.0172933917
1001.5000000000;-0.0174992904
1002.0000000000;-0.0193980578
1002.5000000000;-0.0195379071
1003.0000000000;-0.0188790318
1003.5000000000;-0.0194929019
1004.0000000000;-0.0195285026
1004.5000000000;-0.0188205093
1005.0000000000;-0.0185178369
1005.5000000000;-0.0187318753
1006.0000000000;-0.0189736597
1006.5000000000;-0.0187381525
1007.0000000000;-0.0188281797
1007.5000000000;-0.0193412919
1008.0000000000;-0.0194793399
1008.5000000000;-0.0197451208
1009.0000000000;-0.0198807810
1009.5000000000;-0.0185560863
1010.0000000000;-0.0182301141
1010.5000000000;-0.0199897010
1011.0000000000;-0.0202572849
1011.5000000000;-0.0191646498
1012.0000000000;-0.0186831411
1012.5000000000;-0.0198677909
1013.0000000000;-0.0212162677
1013.5000000000;-0.0207949039
1014.0000000000;-0.0197330602
1014.5000000000;-0.0191978309
1015.0000000000;-0.0196008347
1015.5000000000;-0.0201155581
1016.0000000000;-0.0205219835
1016.5000000000;-0.0212234464
1017.0000000000;-0.0216666777
1017.5000000000;-0.0215342138
1018.0000000000;-0.0210267790
1018.5000000000;-0.0199774448
1019.0000000000;-0.0190562066
1019.5000000000;-0.0199936405
