182.5000000000;0.9708762765
183.0000000000;0.9812740684
183.5000000000;1.0259209871
184.0000000000;1.0794231892
184.5000000000;1.0559550524
185.0000000000;1.0576674938
185.5000000000;1.1760784388
186.0000000000;1.2764333487
186.5000000000;1.4005270004
187.0000000000;1.6829042435
187.5000000000;1.9148756266
188.0000000000;2.0437428951
188.5000000000;2.1811375618
189.0000000000;2.3238174915
189.5000000000;2.4440560341
190.0000000000;2.5480384827
190.5000000000;2.5840048790
191.0000000000;2.6177814007
191.5000000000;2.7145481110
192.0000000000;2.7620363235
192.5000000000;2.7311329842
193.0000000000;2.7482910156
193.5000000000;2.8083903790
194.0000000000;2.8336880207
194.5000000000;2.8522639275
195.0000000000;2.8960404396
195.5000000000;2.9347898960
196.0000000000;2.9473536015
196.5000000000;2.9438428879
197.0000000000;2.9327342510
197.5000000000;2.9249057770
198.0000000000;2.9440598488
198.5000000000;2.9883251190
199.0000000000;3.0212085247
199.5000000000;3.0481677055
200.0000000000;3.0954847336
200.5000000000;3.1446847916
201.0000000000;3.1749823093
201.5000000000;3.1937811375
202.0000000000;3.2015779018
202.5000000000;3.1957793236
203.0000000000;3.2106051445
203.5000000000;3.2624466419
204.0000000000;3.2723028660
204.5000000000;3.2390694618
205.0000000000;3.2666440010
205.5000000000;3.2997584343
206.0000000000;3.2323684692
206.5000000000;3.2125251293
207.0000000000;3.2992913723
207.5000000000;3.3009831905
208.0000000000;3.2068517208
208.5000000000;3.1718935966
209.0000000000;3.1843445301
209.5000000000;3.2036054134
210.0000000000;3.2103452682
210.5000000000;3.1940653324
211.0000000000;3.1570658684
211.5000000000;3.1228551865
212.0000000000;3.1168460846
212.5000000000;3.1591415405
213.0000000000;3.2219624519
213.5000000000;3.1871311665
214.0000000000;3.1303298473
214.5000000000;3.1726636887
215.0000000000;3.2133047581
215.5000000000;3.1786322594
216.0000000000;3.2064518929
216.5000000000;3.2991833687
217.0000000000;3.3076808453
217.5000000000;3.2641842365
218.0000000000;3.2574236393
218.5000000000;3.2969026566
219.0000000000;3.3556661606
219.5000000000;3.3607065678
220.0000000000;3.3304789066
220.5000000000;3.3231384754
221.0000000000;3.3437259197
221.5000000000;3.3769693375
222.0000000000;3.3839735985
222.5000000000;3.3584101200
223.0000000000;3.3304173946
223.5000000000;3.3543879986
224.0000000000;3.4531722069
224.5000000000;3.4712743759
225.0000000000;3.3637559414
225.5000000000;3.2849731445
226.0000000000;3.2759196758
226.5000000000;3.3293821812
227.0000000000;3.3267681599
227.5000000000;3.2373526096
228.0000000000;3.1975026131
228.5000000000;3.2074263096
229.0000000000;3.2101972103
229.5000000000;3.2215058804
230.0000000000;3.2513601780
230.5000000000;3.2424309254
231.0000000000;3.2083678246
231.5000000000;3.2161371708
232.0000000000;3.2196438313
232.5000000000;3.1760666370
233.0000000000;3.1730318069
233.5000000000;3.2265138626
234.0000000000;3.2477595806
234.5000000000;3.2271323204
235.0000000000;3.2092387676
235.5000000000;3.2050111294
236.0000000000;3.2134335041
236.5000000000;3.2264912128
237.0000000000;3.2321722507
237.5000000000;3.2221028805
238.0000000000;3.2185642719
238.5000000000;3.2305727005
239.0000000000;3.2217121124
239.5000000000;3.2046771049
240.0000000000;3.2300598621
240.5000000000;3.2617547512
241.0000000000;3.2498943806
241.5000000000;3.2504241467
242.0000000000;3.2831807137
242.5000000000;3.2971801758
243.0000000000;3.2828114033
243.5000000000;3.2666175365
244.0000000000;3.2834329605
244.5000000000;3.3276357651
245.0000000000;3.3037931919
245.5000000000;3.2375495434
246.0000000000;3.2249202728
246.5000000000;3.2598137856
247.0000000000;3.3062343597
247.5000000000;3.3102571964
248.0000000000;3.2760264874
248.5000000000;3.2709887028
249.0000000000;3.2692255974
249.5000000000;3.2253704071
250.0000000000;3.1956608295
250.5000000000;3.2069103718
251.0000000000;3.2229187489
251.5000000000;3.2105402946
252.0000000000;3.1611955166
252.5000000000;3.1275665760
253.0000000000;3.1332356930
253.5000000000;3.1292173862
254.0000000000;3.1116306782
254.5000000000;3.1156134605
255.0000000000;3.0888090134
255.5000000000;3.0143625736
256.0000000000;3.0234742165
256.5000000000;3.1228942871
257.0000000000;3.1168358326
257.5000000000;3.0378148556
258.0000000000;3.0139062405
258.5000000000;2.9968409538
259.0000000000;2.9688999653
259.5000000000;2.9900581837
260.0000000000;3.0362980366
260.5000000000;3.0223853588
261.0000000000;2.9764270782
261.5000000000;2.9371321201
262.0000000000;2.8938448429
262.5000000000;2.8378858566
263.0000000000;2.7704520226
263.5000000000;2.7119607925
264.0000000000;2.6687879562
264.5000000000;2.6165678501
265.0000000000;2.5522325039
265.5000000000;2.4908556938
266.0000000000;2.4379427433
266.5000000000;2.3948807716
267.0000000000;2.3638823032
267.5000000000;2.3422188759
268.0000000000;2.3211021423
268.5000000000;2.2970728874
269.0000000000;2.2715704441
269.5000000000;2.2518587112
270.0000000000;2.2379024029
270.5000000000;2.2157537937
271.0000000000;2.1902000904
271.5000000000;2.1761121750
272.0000000000;2.1585404873
272.5000000000;2.1263980865
273.0000000000;2.1012566090
273.5000000000;2.0866398811
274.0000000000;2.0658538342
274.5000000000;2.0366258621
275.0000000000;2.0046639442
275.5000000000;1.9764881134
276.0000000000;1.9532968998
276.5000000000;1.9299117327
277.0000000000;1.9064446688
277.5000000000;1.8853533268
278.0000000000;1.8636493683
278.5000000000;1.8397452831
279.0000000000;1.8173230886
279.5000000000;1.7980847359
280.0000000000;1.7813214064
280.5000000000;1.7644008398
281.0000000000;1.7447570562
281.5000000000;1.7220242023
282.0000000000;1.6985826492
282.5000000000;1.6785703897
283.0000000000;1.6596252918
283.5000000000;1.6377193928
284.0000000000;1.6143680811
284.5000000000;1.5915640593
285.0000000000;1.5699849129
285.5000000000;1.5490858555
286.0000000000;1.5282894373
286.5000000000;1.5090054274
287.0000000000;1.4918982983
287.5000000000;1.4754006863
288.0000000000;1.4596269131
288.5000000000;1.4460105896
289.0000000000;1.4333984852
289.5000000000;1.4207696915
290.0000000000;1.4097211361
290.5000000000;1.4000760317
291.0000000000;1.3898391724
291.5000000000;1.3800311089
292.0000000000;1.3722249269
292.5000000000;1.3652790785
293.0000000000;1.3584808111
293.5000000000;1.3524343967
294.0000000000;1.3473348618
294.5000000000;1.3429734707
295.0000000000;1.3387812376
295.5000000000;1.3344495296
296.0000000000;1.3302820921
296.5000000000;1.3263481855
297.0000000000;1.3226652145
297.5000000000;1.3201537132
298.0000000000;1.3190602064
298.5000000000;1.3175199032
299.0000000000;1.3150175810
299.5000000000;1.3126875162
300.0000000000;1.3119350672
300.5000000000;1.3132259846
301.0000000000;1.3141200542
301.5000000000;1.3137525320
302.0000000000;1.3138070107
302.5000000000;1.3149417639
303.0000000000;1.3168916702
303.5000000000;1.3184263706
304.0000000000;1.3191179037
304.5000000000;1.3201445341
305.0000000000;1.3222711086
305.5000000000;1.3256283998
306.0000000000;1.3290992975
306.5000000000;1.3318519592
307.0000000000;1.3344873190
307.5000000000;1.3374912739
308.0000000000;1.3410128355
308.5000000000;1.3448790312
309.0000000000;1.3487678766
309.5000000000;1.3522585630
310.0000000000;1.3555370569
310.5000000000;1.3594254255
311.0000000000;1.3636696339
311.5000000000;1.3677859306
312.0000000000;1.3726137877
312.5000000000;1.3777655363
313.0000000000;1.3808896542
313.5000000000;1.3831717968
314.0000000000;1.3874001503
314.5000000000;1.3923804760
315.0000000000;1.3966391087
315.5000000000;1.4004166126
316.0000000000;1.4042406082
316.5000000000;1.4085710049
317.0000000000;1.4129495621
317.5000000000;1.4170514345
318.0000000000;1.4216568470
318.5000000000;1.4263155460
319.0000000000;1.4293611050
319.5000000000;1.4314539433
320.0000000000;1.4341630936
320.5000000000;1.4382749796
321.0000000000;1.4434586763
321.5000000000;1.4480503798
322.0000000000;1.4503867626
322.5000000000;1.4502655268
323.0000000000;1.4527630806
323.5000000000;1.4587699175
324.0000000000;1.4607434273
324.5000000000;1.4600445032
325.0000000000;1.4633332491
325.5000000000;1.4680267572
326.0000000000;1.4706496000
326.5000000000;1.4719314575
327.0000000000;1.4732333422
327.5000000000;1.4757261276
328.0000000000;1.4786694050
328.5000000000;1.4808906317
329.0000000000;1.4821326733
329.5000000000;1.4837398529
330.0000000000;1.4877626896
330.5000000000;1.4895018339
331.0000000000;1.4852367640
331.5000000000;1.4838600159
332.0000000000;1.4886418581
332.5000000000;1.4929665327
333.0000000000;1.4944075346
333.5000000000;1.4940495491
334.0000000000;1.4951692820
334.5000000000;1.4987887144
335.0000000000;1.5016968250
335.5000000000;1.5025793314
336.0000000000;1.5021386147
336.5000000000;1.5028518438
337.0000000000;1.5061725378
337.5000000000;1.5105713606
338.0000000000;1.5131901503
338.5000000000;1.5116431713
339.0000000000;1.5113326311
339.5000000000;1.5161552429
340.0000000000;1.5202748775
340.5000000000;1.5218828917
341.0000000000;1.5243058205
341.5000000000;1.5271577835
342.0000000000;1.5296038389
342.5000000000;1.5344074965
343.0000000000;1.5405582190
343.5000000000;1.5425231457
344.0000000000;1.5431666374
344.5000000000;1.5476955175
345.0000000000;1.5531504154
345.5000000000;1.5572069883
346.0000000000;1.5610924959
346.5000000000;1.5648943186
347.0000000000;1.5682525635
347.5000000000;1.5728563070
348.0000000000;1.5787225962
348.5000000000;1.5823153257
349.0000000000;1.5859265327
349.5000000000;1.5947830677
350.0000000000;1.6037992239
350.5000000000;1.6080065966
351.0000000000;1.6106238365
351.5000000000;1.6151568890
352.0000000000;1.6237833500
352.5000000000;1.6347173452
353.0000000000;1.6442928314
353.5000000000;1.6485406160
354.0000000000;1.6511279345
354.5000000000;1.6621541977
355.0000000000;1.6746579409
355.5000000000;1.6789208651
356.0000000000;1.6850405931
356.5000000000;1.6961772442
357.0000000000;1.7021726370
357.5000000000;1.7078945637
358.0000000000;1.7226221561
358.5000000000;1.7343480587
359.0000000000;1.7368862629
359.5000000000;1.7443811893
360.0000000000;1.7593128681
360.5000000000;1.7717164755
361.0000000000;1.7829383612
361.5000000000;1.7964546680
362.0000000000;1.8072392941
362.5000000000;1.8168078661
363.0000000000;1.8326503038
363.5000000000;1.8506772518
364.0000000000;1.8632959127
364.5000000000;1.8665161133
365.0000000000;1.8693013191
365.5000000000;1.8883926868
366.0000000000;1.9106560946
366.5000000000;1.9190629721
367.0000000000;1.9304922819
367.5000000000;1.9501461983
368.0000000000;1.9626874924
368.5000000000;1.9668550491
369.0000000000;1.9709110260
369.5000000000;1.9855781794
370.0000000000;2.0081710815
370.5000000000;2.0158548355
371.0000000000;2.0106730461
371.5000000000;2.0119976997
372.0000000000;2.0380079746
372.5000000000;2.0825271606
373.0000000000;2.0922880173
373.5000000000;2.0791444778
374.0000000000;2.0943040848
374.5000000000;2.1211266518
375.0000000000;2.1370539665
375.5000000000;2.1505916119
376.0000000000;2.1665678024
376.5000000000;2.1817243099
377.0000000000;2.1848049164
377.5000000000;2.1772835255
378.0000000000;2.1912176609
378.5000000000;2.2247786522
379.0000000000;2.2409093380
379.5000000000;2.2405233383
380.0000000000;2.2418076992
380.5000000000;2.2569353580
381.0000000000;2.2794504166
381.5000000000;2.2847669125
382.0000000000;2.2823412418
382.5000000000;2.2904794216
383.0000000000;2.3019454479
383.5000000000;2.3114066124
384.0000000000;2.3197534084
384.5000000000;2.3208448887
385.0000000000;2.3129823208
385.5000000000;2.3201899529
386.0000000000;2.3423383236
386.5000000000;2.3394494057
387.0000000000;2.3289601803
387.5000000000;2.3468616009
388.0000000000;2.3574454784
388.5000000000;2.3401377201
389.0000000000;2.3294670582
389.5000000000;2.3381652832
390.0000000000;2.3592033386
390.5000000000;2.3679931164
391.0000000000;2.3521442413
391.5000000000;2.3338823318
392.0000000000;2.3260943890
392.5000000000;2.3308031559
393.0000000000;2.3403563499
393.5000000000;2.3460853100
394.0000000000;2.3431653976
394.5000000000;2.3378767967
395.0000000000;2.3416790962
395.5000000000;2.3418288231
396.0000000000;2.3307406902
396.5000000000;2.3356270790
397.0000000000;2.3539826870
397.5000000000;2.3522059917
398.0000000000;2.3423886299
398.5000000000;2.3461704254
399.0000000000;2.3570036888
399.5000000000;2.3546721935
400.0000000000;2.3168718815
400.5000000000;2.2854073048
401.0000000000;2.2998878956
401.5000000000;2.3258445263
402.0000000000;2.3280107975
402.5000000000;2.2998237610
403.0000000000;2.2800841331
403.5000000000;2.3016664982
404.0000000000;2.3180062771
404.5000000000;2.3013882637
405.0000000000;2.2836251259
405.5000000000;2.2731420994
406.0000000000;2.2640025616
406.5000000000;2.2548410892
407.0000000000;2.2464776039
407.5000000000;2.2411901951
408.0000000000;2.2311871052
408.5000000000;2.2071549892
409.0000000000;2.1821820736
409.5000000000;2.1695046425
410.0000000000;2.1756725311
410.5000000000;2.1832170486
411.0000000000;2.1633410454
411.5000000000;2.1316559315
412.0000000000;2.1090383530
412.5000000000;2.1009070873
413.0000000000;2.0980916023
413.5000000000;2.0850479603
414.0000000000;2.0663020611
414.5000000000;2.0488200188
415.0000000000;2.0298225880
415.5000000000;2.0110416412
416.0000000000;1.9962633848
416.5000000000;1.9805067778
417.0000000000;1.9599848986
417.5000000000;1.9385815859
418.0000000000;1.9177519083
418.5000000000;1.8961567879
419.0000000000;1.8754329681
419.5000000000;1.8576877117
420.0000000000;1.8403018713
420.5000000000;1.8215830326
421.0000000000;1.8024653196
421.5000000000;1.7849584818
422.0000000000;1.7690736055
422.5000000000;1.7509518862
423.0000000000;1.7296090126
423.5000000000;1.7070581913
424.0000000000;1.6853117943
424.5000000000;1.6648336649
425.0000000000;1.6451067924
425.5000000000;1.6255247593
426.0000000000;1.6025391817
426.5000000000;1.5795031786
427.0000000000;1.5629475117
427.5000000000;1.5471458435
428.0000000000;1.5270763636
428.5000000000;1.5047448874
429.0000000000;1.4825584888
429.5000000000;1.4632438421
430.0000000000;1.4461855888
430.5000000000;1.4286377430
431.0000000000;1.4085000753
431.5000000000;1.3873929977
432.0000000000;1.3683779240
432.5000000000;1.3498504162
433.0000000000;1.3305090666
433.5000000000;1.3124096394
434.0000000000;1.2958558798
434.5000000000;1.2774848938
435.0000000000;1.2584571838
435.5000000000;1.2419024706
436.0000000000;1.2246550322
436.5000000000;1.2064462900
437.0000000000;1.1899513006
437.5000000000;1.1737029552
438.0000000000;1.1565493345
438.5000000000;1.1401464939
439.0000000000;1.1248883009
439.5000000000;1.1099882126
440.0000000000;1.0948791504
440.5000000000;1.0792279243
441.0000000000;1.0636328459
441.5000000000;1.0494968891
442.0000000000;1.0356954336
442.5000000000;1.0208337307
443.0000000000;1.0057563782
443.5000000000;0.9913072586
444.0000000000;0.9775934219
444.5000000000;0.9641845822
445.0000000000;0.9510231614
445.5000000000;0.9381042719
446.0000000000;0.9252153635
446.5000000000;0.9123345017
447.0000000000;0.8993449211
447.5000000000;0.8865977526
448.0000000000;0.8746954203
448.5000000000;0.8630467057
449.0000000000;0.8513027430
449.5000000000;0.8396532536
450.0000000000;0.8281497359
450.5000000000;0.8167598844
451.0000000000;0.8053770065
451.5000000000;0.7941439152
452.0000000000;0.7833679318
452.5000000000;0.7730292678
453.0000000000;0.7628124952
453.5000000000;0.7522670627
454.0000000000;0.7415166497
454.5000000000;0.7312875390
455.0000000000;0.7215827107
455.5000000000;0.7120124698
456.0000000000;0.7023770213
456.5000000000;0.6927233934
457.0000000000;0.6834420562
457.5000000000;0.6744927168
458.0000000000;0.6656172872
458.5000000000;0.6569254994
459.0000000000;0.6481781006
459.5000000000;0.6392700672
460.0000000000;0.6303459406
460.5000000000;0.6213889122
461.0000000000;0.6126690507
461.5000000000;0.6045491099
462.0000000000;0.5966340303
462.5000000000;0.5885451436
463.0000000000;0.5806832910
463.5000000000;0.5731970072
464.0000000000;0.5655956864
464.5000000000;0.5580158234
465.0000000000;0.5506193042
465.5000000000;0.5431555510
466.0000000000;0.5359280109
466.5000000000;0.5290040970
467.0000000000;0.5215275288
467.5000000000;0.5139560699
468.0000000000;0.5073634386
468.5000000000;0.5009590387
469.0000000000;0.4938553870
469.5000000000;0.4865167439
470.0000000000;0.4795094132
470.5000000000;0.4730432630
471.0000000000;0.4667825103
471.5000000000;0.4604376256
472.0000000000;0.4541916847
472.5000000000;0.4482150674
473.0000000000;0.4425869882
473.5000000000;0.4369129837
474.0000000000;0.4307578504
474.5000000000;0.4245863855
475.0000000000;0.4188516438
475.5000000000;0.4134394825
476.0000000000;0.4080464840
476.5000000000;0.4025084078
477.0000000000;0.3969721794
477.5000000000;0.3915406466
478.0000000000;0.3863399625
478.5000000000;0.3813446462
479.0000000000;0.3763165176
479.5000000000;0.3713772595
480.0000000000;0.3665989041
480.5000000000;0.3616884947
481.0000000000;0.3568477035
481.5000000000;0.3522845209
482.0000000000;0.3477015197
482.5000000000;0.3431124389
483.0000000000;0.3387467563
483.5000000000;0.3343161643
484.0000000000;0.3299466968
484.5000000000;0.3264929950
485.0000000000;0.3220361471
485.5000000000;0.3156467378
486.0000000000;0.3125491738
486.5000000000;0.3128073215
487.0000000000;0.3099576831
487.5000000000;0.3030833900
488.0000000000;0.2982111871
488.5000000000;0.2950012684
489.0000000000;0.2912407219
489.5000000000;0.2874874473
490.0000000000;0.2841444016
490.5000000000;0.2809388340
491.0000000000;0.2776131034
491.5000000000;0.2741293013
492.0000000000;0.2707309425
492.5000000000;0.2676229775
493.0000000000;0.2648171186
493.5000000000;0.2619549632
494.0000000000;0.2587092519
494.5000000000;0.2553327084
495.0000000000;0.2521044314
495.5000000000;0.2491063178
496.0000000000;0.2463407218
496.5000000000;0.2437990010
497.0000000000;0.2413399369
497.5000000000;0.2387029529
498.0000000000;0.2358488142
498.5000000000;0.2333188355
499.0000000000;0.2312732786
499.5000000000;0.2289760113
500.0000000000;0.2263008505
500.5000000000;0.2237578630
501.0000000000;0.2215130180
501.5000000000;0.2194734961
502.0000000000;0.2172848135
502.5000000000;0.2149096280
503.0000000000;0.2126921117
503.5000000000;0.2106378824
504.0000000000;0.2085672170
504.5000000000;0.2063760161
505.0000000000;0.2042480409
505.5000000000;0.2024455369
506.0000000000;0.2005963475
506.5000000000;0.1984692663
507.0000000000;0.1965241283
507.5000000000;0.1948442906
508.0000000000;0.1931995004
508.5000000000;0.1914279163
509.0000000000;0.1894861907
509.5000000000;0.1876837909
510.0000000000;0.1861003190
510.5000000000;0.1845479310
511.0000000000;0.1829295605
511.5000000000;0.1812655926
512.0000000000;0.1796960980
512.5000000000;0.1782089174
513.0000000000;0.1766999662
513.5000000000;0.1750887036
514.0000000000;0.1734106392
514.5000000000;0.1719162762
515.0000000000;0.1705653965
515.5000000000;0.1691487730
516.0000000000;0.1677708626
516.5000000000;0.1664758623
517.0000000000;0.1650913805
517.5000000000;0.1637024581
518.0000000000;0.1624959558
518.5000000000;0.1612463444
519.0000000000;0.1598590016
519.5000000000;0.1586309671
520.0000000000;0.1574967057
520.5000000000;0.1562003791
521.0000000000;0.1549209952
521.5000000000;0.1537880003
522.0000000000;0.1526127309
522.5000000000;0.1513917893
523.0000000000;0.1502480656
523.5000000000;0.1490830630
524.0000000000;0.1478742212
524.5000000000;0.1468204111
525.0000000000;0.1458719373
525.5000000000;0.1448511183
526.0000000000;0.1437988132
526.5000000000;0.1427984983
527.0000000000;0.1418970674
527.5000000000;0.1409960240
528.0000000000;0.1399658471
528.5000000000;0.1388875693
529.0000000000;0.1378550082
529.5000000000;0.1368896067
530.0000000000;0.1360033453
530.5000000000;0.1351783723
531.0000000000;0.1342764199
531.5000000000;0.1332687289
532.0000000000;0.1323004812
532.5000000000;0.1314136088
533.0000000000;0.1305939406
533.5000000000;0.1298378557
534.0000000000;0.1290791333
534.5000000000;0.1281996369
535.0000000000;0.1272952706
535.5000000000;0.1265085936
536.0000000000;0.1257518232
536.5000000000;0.1249415651
537.0000000000;0.1240753010
537.5000000000;0.1232182905
538.0000000000;0.1224432513
538.5000000000;0.1217576116
539.0000000000;0.1211015955
539.5000000000;0.1203713790
540.0000000000;0.1195631698
540.5000000000;0.1187328249
541.0000000000;0.1179577559
541.5000000000;0.1172606349
542.0000000000;0.1166057810
542.5000000000;0.1159448177
543.0000000000;0.1152215153
543.5000000000;0.1144266799
544.0000000000;0.1136175841
544.5000000000;0.1128783524
545.0000000000;0.1122544855
545.5000000000;0.1116979495
546.0000000000;0.1109850258
546.5000000000;0.1101581082
547.0000000000;0.1094842181
547.5000000000;0.1089569330
548.0000000000;0.1084511057
548.5000000000;0.1078161672
549.0000000000;0.1070550233
549.5000000000;0.1063110232
550.0000000000;0.1056533828
550.5000000000;0.1050531715
551.0000000000;0.1043746099
551.5000000000;0.1036628932
552.0000000000;0.1030742899
552.5000000000;0.1024998352
553.0000000000;0.1018622741
553.5000000000;0.1013120636
554.0000000000;0.1008104160
554.5000000000;0.1001925170
555.0000000000;0.0995273367
555.5000000000;0.0989193469
556.0000000000;0.0983793586
556.5000000000;0.0978460237
557.0000000000;0.0972544327
557.5000000000;0.0966653898
558.0000000000;0.0961053371
558.5000000000;0.0954996869
559.0000000000;0.0948447511
559.5000000000;0.0942061469
560.0000000000;0.0936699361
560.5000000000;0.0932104513
561.0000000000;0.0926738605
561.5000000000;0.0921034589
562.0000000000;0.0915967450
562.5000000000;0.0910390615
563.0000000000;0.0904083028
563.5000000000;0.0898375884
564.0000000000;0.0893213823
564.5000000000;0.0888051167
565.0000000000;0.0882995948
565.5000000000;0.0877777636
566.0000000000;0.0871756971
566.5000000000;0.0865405574
567.0000000000;0.0859457925
567.5000000000;0.0853687078
568.0000000000;0.0848675519
568.5000000000;0.0846255422
569.0000000000;0.0846665576
569.5000000000;0.0847522765
570.0000000000;0.0842945874
570.5000000000;0.0835323930
571.0000000000;0.0835315660
571.5000000000;0.0846234187
572.0000000000;0.0855421275
572.5000000000;0.0842309743
573.0000000000;0.0817279145
573.5000000000;0.0804658681
574.0000000000;0.0804854706
574.5000000000;0.0809889957
575.0000000000;0.0809496418
575.5000000000;0.0803708807
576.0000000000;0.0798381269
576.5000000000;0.0787944347
577.0000000000;0.0774625614
577.5000000000;0.0776229277
578.0000000000;0.0782297850
578.5000000000;0.0771335065
579.0000000000;0.0750439316
579.5000000000;0.0735417530
580.0000000000;0.0738590956
580.5000000000;0.0749397799
581.0000000000;0.0752365738
581.5000000000;0.0760571212
582.0000000000;0.0772719234
582.5000000000;0.0768918246
583.0000000000;0.0753187761
583.5000000000;0.0742126629
584.0000000000;0.0741141289
584.5000000000;0.0744520575
585.0000000000;0.0741437152
585.5000000000;0.0734537467
586.0000000000;0.0729400143
586.5000000000;0.0723771453
587.0000000000;0.0717691556
587.5000000000;0.0714314654
588.0000000000;0.0713391379
588.5000000000;0.0712442175
589.0000000000;0.0707340911
589.5000000000;0.0698553100
590.0000000000;0.0691038743
590.5000000000;0.0685764998
591.0000000000;0.0681864098
591.5000000000;0.0678552911
592.0000000000;0.0674104169
592.5000000000;0.0667759031
593.0000000000;0.0664623305
593.5000000000;0.0664313585
594.0000000000;0.0657357797
594.5000000000;0.0648424551
595.0000000000;0.0646979511
595.5000000000;0.0645041242
596.0000000000;0.0637721568
596.5000000000;0.0629972741
597.0000000000;0.0624521226
597.5000000000;0.0620859563
598.0000000000;0.0615484640
598.5000000000;0.0608293787
599.0000000000;0.0603481568
599.5000000000;0.0599430986
600.0000000000;0.0593789630
600.5000000000;0.0590194277
601.0000000000;0.0589165837
601.5000000000;0.0587165952
602.0000000000;0.0581962466
602.5000000000;0.0574544072
603.0000000000;0.0571085326
603.5000000000;0.0570942238
604.0000000000;0.0568301007
604.5000000000;0.0562578402
605.0000000000;0.0556335151
605.5000000000;0.0553028211
606.0000000000;0.0551787466
606.5000000000;0.0549788699
607.0000000000;0.0547794625
607.5000000000;0.0546234362
608.0000000000;0.0543825403
608.5000000000;0.0540761538
609.0000000000;0.0538216718
609.5000000000;0.0537487268
610.0000000000;0.0537817664
610.5000000000;0.0536249615
611.0000000000;0.0533964299
611.5000000000;0.0533082858
612.0000000000;0.0532048494
612.5000000000;0.0530389957
613.0000000000;0.0529411212
613.5000000000;0.0528949313
614.0000000000;0.0528212152
614.5000000000;0.0526595525
615.0000000000;0.0524829477
615.5000000000;0.0524364598
616.0000000000;0.0523141362
616.5000000000;0.0519690290
617.0000000000;0.0516371764
617.5000000000;0.0515112206
618.0000000000;0.0516002253
618.5000000000;0.0515437275
619.0000000000;0.0512389913
619.5000000000;0.0511396527
620.0000000000;0.0511803702
620.5000000000;0.0510213114
621.0000000000;0.0506019369
621.5000000000;0.0501467437
622.0000000000;0.0500799939
622.5000000000;0.0501410924
623.0000000000;0.0499187559
623.5000000000;0.0495716259
624.0000000000;0.0492724814
624.5000000000;0.0490581542
625.0000000000;0.0486665554
625.5000000000;0.0480163284
626.0000000000;0.0477159470
626.5000000000;0.0477198362
627.0000000000;0.0474505872
627.5000000000;0.0471400023
628.0000000000;0.0469879322
628.5000000000;0.0466411710
629.0000000000;0.0461941548
629.5000000000;0.0459745824
630.0000000000;0.0457378440
630.5000000000;0.0453065522
631.0000000000;0.0448473878
631.5000000000;0.0444885008
632.0000000000;0.0442699939
632.5000000000;0.0441010483
633.0000000000;0.0438963249
633.5000000000;0.0436205678
634.0000000000;0.0433136635
634.5000000000;0.0430356227
635.0000000000;0.0428034365
635.5000000000;0.0426073261
636.0000000000;0.0424217023
636.5000000000;0.0422577709
637.0000000000;0.0421242453
637.5000000000;0.0419956073
638.0000000000;0.0418033451
638.5000000000;0.0414854027
639.0000000000;0.0411745310
639.5000000000;0.0409846380
640.0000000000;0.0408882946
640.5000000000;0.0407751910
641.0000000000;0.0405537486
641.5000000000;0.0403663404
642.0000000000;0.0402701311
642.5000000000;0.0401491858
643.0000000000;0.0400400870
643.5000000000;0.0400034785
644.0000000000;0.0399328731
644.5000000000;0.0397896245
645.0000000000;0.0396356806
645.5000000000;0.0395086631
646.0000000000;0.0394220576
646.5000000000;0.0393640511
647.0000000000;0.0392912105
647.5000000000;0.0391637906
648.0000000000;0.0390814990
648.5000000000;0.0390851609
649.0000000000;0.0390474796
649.5000000000;0.0389299467
650.0000000000;0.0387726836
650.5000000000;0.0386479348
651.0000000000;0.0385836475
651.5000000000;0.0385357253
652.0000000000;0.0384595469
652.5000000000;0.0383316316
653.0000000000;0.0381836928
653.5000000000;0.0380694643
654.0000000000;0.0380418450
654.5000000000;0.0380108356
655.0000000000;0.0372993387
655.5000000000;0.0359064713
656.0000000000;0.0369989499
656.5000000000;0.0428541973
657.0000000000;0.0492594838
657.5000000000;0.0413757898
658.0000000000;0.0354546197
658.5000000000;0.0367719233
659.0000000000;0.0366699770
659.5000000000;0.0358713642
660.0000000000;0.0357303321
660.5000000000;0.0355762616
661.0000000000;0.0353335626
661.5000000000;0.0351595804
662.0000000000;0.0348628871
662.5000000000;0.0345088281
663.0000000000;0.0343861543
663.5000000000;0.0342375524
664.0000000000;0.0338510275
664.5000000000;0.0335171446
665.0000000000;0.0333084986
665.5000000000;0.0330821238
666.0000000000;0.0327252112
666.5000000000;0.0322776325
667.0000000000;0.0319768935
667.5000000000;0.0317922942
668.0000000000;0.0315781869
668.5000000000;0.0313705467
669.0000000000;0.0311977193
669.5000000000;0.0310309231
670.0000000000;0.0308239274
670.5000000000;0.0305702835
671.0000000000;0.0303691756
671.5000000000;0.0302159395
672.0000000000;0.0300198477
672.5000000000;0.0298083313
673.0000000000;0.0296239611
673.5000000000;0.0294646081
674.0000000000;0.0292928033
674.5000000000;0.0290689319
675.0000000000;0.0288256891
675.5000000000;0.0286179446
676.0000000000;0.0284906048
676.5000000000;0.0283557121
677.0000000000;0.0281367656
677.5000000000;0.0279647429
678.0000000000;0.0278605372
678.5000000000;0.0277196597
679.0000000000;0.0275695492
679.5000000000;0.0274608210
680.0000000000;0.0273785163
680.5000000000;0.0272524077
681.0000000000;0.0270317942
681.5000000000;0.0268927328
682.0000000000;0.0268834233
682.5000000000;0.0267957747
683.0000000000;0.0266199615
683.5000000000;0.0264613330
684.0000000000;0.0263968911
684.5000000000;0.0264553539
685.0000000000;0.0265986305
685.5000000000;0.0266459286
686.0000000000;0.0264724381
686.5000000000;0.0262006409
687.0000000000;0.0260151550
687.5000000000;0.0260370020
688.0000000000;0.0260064453
688.5000000000;0.0258208197
689.0000000000;0.0257735550
689.5000000000;0.0258442294
690.0000000000;0.0258588772
690.5000000000;0.0258302819
691.0000000000;0.0258099064
691.5000000000;0.0258318800
692.0000000000;0.0258107763
692.5000000000;0.0257035699
693.0000000000;0.0256725103
693.5000000000;0.0256699175
694.0000000000;0.0255118124
694.5000000000;0.0253453925
695.0000000000;0.0252729729
695.5000000000;0.0251573492
696.0000000000;0.0250086673
696.5000000000;0.0249243751
697.0000000000;0.0249241479
697.5000000000;0.0249173101
698.0000000000;0.0247368924
698.5000000000;0.0244777370
699.0000000000;0.0242908448
699.5000000000;0.0241579078
700.0000000000;0.0240383502
700.5000000000;0.0238982309
701.0000000000;0.0237116944
701.5000000000;0.0235005710
702.0000000000;0.0233560782
702.5000000000;0.0232660044
703.0000000000;0.0231461599
703.5000000000;0.0229130499
704.0000000000;0.0226346105
704.5000000000;0.0225116964
705.0000000000;0.0224078335
705.5000000000;0.0221788157
706.0000000000;0.0220177900
706.5000000000;0.0219504386
707.0000000000;0.0218420066
707.5000000000;0.0216910224
708.0000000000;0.0215049963
708.5000000000;0.0212466884
709.0000000000;0.0209542122
709.5000000000;0.0206957273
710.0000000000;0.0204915628
710.5000000000;0.0203214381
711.0000000000;0.0201325398
711.5000000000;0.0199333653
712.0000000000;0.0197546929
712.5000000000;0.0196086168
713.0000000000;0.0194882918
713.5000000000;0.0193670746
714.0000000000;0.0191864707
714.5000000000;0.0189515986
715.0000000000;0.0187719334
715.5000000000;0.0186406244
716.0000000000;0.0184770674
716.5000000000;0.0182115901
717.0000000000;0.0178860817
717.5000000000;0.0176374745
718.0000000000;0.0174688026
718.5000000000;0.0173232835
719.0000000000;0.0171393007
719.5000000000;0.0168920252
720.0000000000;0.0165988170
720.5000000000;0.0163479131
721.0000000000;0.0161707085
721.5000000000;0.0159928054
722.0000000000;0.0158015564
722.5000000000;0.0156092271
723.0000000000;0.0153999645
723.5000000000;0.0152133992
724.0000000000;0.0151132680
724.5000000000;0.0149970008
725.0000000000;0.0148227587
725.5000000000;0.0147487251
726.0000000000;0.0147193950
726.5000000000;0.0145850433
727.0000000000;0.0144281248
727.5000000000;0.0142785972
728.0000000000;0.0140488250
728.5000000000;0.0138250096
729.0000000000;0.0137017006
729.5000000000;0.0135937929
730.0000000000;0.0134966383
730.5000000000;0.0134785743
731.0000000000;0.0134960162
731.5000000000;0.0134518221
732.0000000000;0.0132382084
732.5000000000;0.0129620414
733.0000000000;0.0128037548
733.5000000000;0.0127545865
734.0000000000;0.0127662607
734.5000000000;0.0127931153
735.0000000000;0.0128111355
735.5000000000;0.0127864657
736.0000000000;0.0126556950
736.5000000000;0.0124722663
737.0000000000;0.0123498617
737.5000000000;0.0122628640
738.0000000000;0.0121395504
738.5000000000;0.0119298575
739.0000000000;0.0118347984
739.5000000000;0.0119919442
740.0000000000;0.0120890560
740.5000000000;0.0120247165
741.0000000000;0.0119280396
741.5000000000;0.0118101416
742.0000000000;0.0116876923
742.5000000000;0.0116379624
743.0000000000;0.0115971211
743.5000000000;0.0114791561
744.0000000000;0.0114131747
744.5000000000;0.0114278896
745.0000000000;0.0114072002
745.5000000000;0.0113457032
746.0000000000;0.0112739792
746.5000000000;0.0112011386
747.0000000000;0.0111945812
747.5000000000;0.0112992488
748.0000000000;0.0112925600
748.5000000000;0.0111131389
749.0000000000;0.0109850047
749.5000000000;0.0109202834
750.0000000000;0.0108762188
750.5000000000;0.0109477090
751.0000000000;0.0109922662
751.5000000000;0.0107472287
752.0000000000;0.0105199823
752.5000000000;0.0105372192
753.0000000000;0.0106073385
753.5000000000;0.0106639042
754.0000000000;0.0106899068
754.5000000000;0.0105266562
755.0000000000;0.0102359364
755.5000000000;0.0101067815
756.0000000000;0.0101875123
756.5000000000;0.0103670862
757.0000000000;0.0104360189
757.5000000000;0.0103945257
758.0000000000;0.0103469715
758.5000000000;0.0102384156
759.0000000000;0.0100590689
759.5000000000;0.0098851966
760.0000000000;0.0096860165
760.5000000000;0.0094531197
761.0000000000;0.0093316343
761.5000000000;0.0092089009
762.0000000000;0.0088648396
762.5000000000;0.0086025195
763.0000000000;0.0085996324
763.5000000000;0.0086449748
764.0000000000;0.0085790977
764.5000000000;0.0083731543
765.0000000000;0.0082218824
765.5000000000;0.0080877533
766.0000000000;0.0077733467
766.5000000000;0.0074599870
767.0000000000;0.0072884979
767.5000000000;0.0071574077
768.0000000000;0.0071506230
768.5000000000;0.0073366850
769.0000000000;0.0074266540
769.5000000000;0.0072527281
770.0000000000;0.0068540145
770.5000000000;0.0064696046
771.0000000000;0.0062747272
771.5000000000;0.0061683529
772.0000000000;0.0059811734
772.5000000000;0.0056359312
773.0000000000;0.0054203663
773.5000000000;0.0053891088
774.0000000000;0.0052861557
774.5000000000;0.0050333412
775.0000000000;0.0047045769
775.5000000000;0.0045094485
776.0000000000;0.0044507417
776.5000000000;0.0043891347
777.0000000000;0.0042519243
777.5000000000;0.0040588467
778.0000000000;0.0039147246
778.5000000000;0.0038559209
779.0000000000;0.0038735648
779.5000000000;0.0039271936
780.0000000000;0.0038948383
780.5000000000;0.0036745761
781.0000000000;0.0034914499
781.5000000000;0.0034390700
782.0000000000;0.0033402438
782.5000000000;0.0032342954
783.0000000000;0.0031878806
783.5000000000;0.0030722125
784.0000000000;0.0028652009
784.5000000000;0.0026506705
785.0000000000;0.0024984609
785.5000000000;0.0024171835
786.0000000000;0.0023304292
786.5000000000;0.0021960789
787.0000000000;0.0020292120
787.5000000000;0.0019264404
788.0000000000;0.0019267049
788.5000000000;0.0019878584
789.0000000000;0.0019725859
789.5000000000;0.0018344006
790.0000000000;0.0016950676
790.5000000000;0.0016088383
791.0000000000;0.0015540809
791.5000000000;0.0014323444
792.0000000000;0.0012664855
792.5000000000;0.0011741318
793.0000000000;0.0011217367
793.5000000000;0.0011141553
794.0000000000;0.0012569726
794.5000000000;0.0013471973
795.0000000000;0.0011704453
795.5000000000;0.0009471821
796.0000000000;0.0007913356
796.5000000000;0.0006573928
797.0000000000;0.0005716556
797.5000000000;0.0005562306
798.0000000000;0.0005870878
798.5000000000;0.0006210030
799.0000000000;0.0006032743
799.5000000000;0.0004811079
800.0000000000;0.0003374821
800.5000000000;0.0003308952
801.0000000000;0.0003362671
801.5000000000;0.0002718590
802.0000000000;0.0002546988
802.5000000000;0.0001897177
803.0000000000;-0.0000168061
803.5000000000;-0.0000862008
804.0000000000;-0.0000206391
804.5000000000;-0.0000901904
805.0000000000;-0.0002159979
805.5000000000;-0.0002426820
806.0000000000;-0.0001070374
806.5000000000;0.0000341620
807.0000000000;-0.0000097758
807.5000000000;-0.0001820069
808.0000000000;-0.0003381526
808.5000000000;-0.0003472364
809.0000000000;-0.0003508440
809.5000000000;-0.0004354445
810.0000000000;-0.0004682669
810.5000000000;-0.0004431749
811.0000000000;-0.0004301536
811.5000000000;-0.0004717041
812.0000000000;-0.0005549981
812.5000000000;-0.0006221625
813.0000000000;-0.0006334048
813.5000000000;-0.0005987039
814.0000000000;-0.0005903497
814.5000000000;-0.0006370349
815.0000000000;-0.0007167626
815.5000000000;-0.0007449887
816.0000000000;-0.0007355215
816.5000000000;-0.0007811333
817.0000000000;-0.0008782825
817.5000000000;-0.0009830872
818.0000000000;-0.0010449489
818.5000000000;-0.0010879054
819.0000000000;-0.0011447580
819.5000000000;-0.0011699792
820.0000000000;-0.0011354595
820.5000000000;-0.0010646106
821.0000000000;-0.0010864100
821.5000000000;-0.0012124815
822.0000000000;-0.0012686691
822.5000000000;-0.0012754762
823.0000000000;-0.0013065846
823.5000000000;-0.0013141917
824.0000000000;-0.0013098012
824.5000000000;-0.0013499513
825.0000000000;-0.0014146643
825.5000000000;-0.0014789738
826.0000000000;-0.0015357338
826.5000000000;-0.0015569527
827.0000000000;-0.0015321590
827.5000000000;-0.0015141561
828.0000000000;-0.0015775006
828.5000000000;-0.0017557015
829.0000000000;-0.0018848522
829.5000000000;-0.0019097977
830.0000000000;-0.0019564901
830.5000000000;-0.0020452205
831.0000000000;-0.0021222308
831.5000000000;-0.0020951317
832.0000000000;-0.0020059780
832.5000000000;-0.0019654895
833.0000000000;-0.0019878300
833.5000000000;-0.0020599063
834.0000000000;-0.0021370351
834.5000000000;-0.0020356905
835.0000000000;-0.0018045646
835.5000000000;-0.0019401166
836.0000000000;-0.0022125922
836.5000000000;-0.0021669576
837.0000000000;-0.0021532662
837.5000000000;-0.0022729484
838.0000000000;-0.0022819887
838.5000000000;-0.0022611879
839.0000000000;-0.0022942072
839.5000000000;-0.0022979821
840.0000000000;-0.0023019405
840.5000000000;-0.0023557704
841.0000000000;-0.0023809988
841.5000000000;-0.0023668397
842.0000000000;-0.0023659833
842.5000000000;-0.0023577879
843.0000000000;-0.0023644343
843.5000000000;-0.0024731499
844.0000000000;-0.0025634510
844.5000000000;-0.0025405034
845.0000000000;-0.0025841810
845.5000000000;-0.0026591886
846.0000000000;-0.0026204162
846.5000000000;-0.0026501499
847.0000000000;-0.0027567018
847.5000000000;-0.0026965477
848.0000000000;-0.0026456758
848.5000000000;-0.0027460204
849.0000000000;-0.0027433839
849.5000000000;-0.0026429293
850.0000000000;-0.0026127947
850.5000000000;-0.0026820495
851.0000000000;-0.0027124593
851.5000000000;-0.0025100717
852.0000000000;-0.0023688653
852.5000000000;-0.0024339878
853.0000000000;-0.0023730341
853.5000000000;-0.0021789500
854.0000000000;-0.0020376199
854.5000000000;-0.0021118724
855.0000000000;-0.0023039973
855.5000000000;-0.0023580256
856.0000000000;-0.0023393822
856.5000000000;-0.0023343756
857.0000000000;-0.0023313321
857.5000000000;-0.0023339796
858.0000000000;-0.0023468451
858.5000000000;-0.0023527991
859.0000000000;-0.0023419368
859.5000000000;-0.0023263614
860.0000000000;-0.0023684681
860.5000000000;-0.0024456405
861.0000000000;-0.0024478030
861.5000000000;-0.0024176601
862.0000000000;-0.0024157993
862.5000000000;-0.0024283945
863.0000000000;-0.0024527947
863.5000000000;-0.0024756526
864.0000000000;-0.0024279992
864.5000000000;-0.0023804461
865.0000000000;-0.0024718395
865.5000000000;-0.0024895668
866.0000000000;-0.0023549737
866.5000000000;-0.0023031700
867.0000000000;-0.0022901266
867.5000000000;-0.0022345791
868.0000000000;-0.0022884218
868.5000000000;-0.0023695221
869.0000000000;-0.0023033856
869.5000000000;-0.0023153992
870.0000000000;-0.0024320381
870.5000000000;-0.0023943521
871.0000000000;-0.0022796860
871.5000000000;-0.0022467459
872.0000000000;-0.0023387559
872.5000000000;-0.0023508647
873.0000000000;-0.0021464576
873.5000000000;-0.0021440219
874.0000000000;-0.0023090641
874.5000000000;-0.0022453510
875.0000000000;-0.0021906679
875.5000000000;-0.0022988366
876.0000000000;-0.0023637102
876.5000000000;-0.0023543430
877.0000000000;-0.0023508419
877.5000000000;-0.0024510997
878.0000000000;-0.0025242020
878.5000000000;-0.0023848373
879.0000000000;-0.0022179710
879.5000000000;-0.0022192255
880.0000000000;-0.0024534175
880.5000000000;-0.0026567818
881.0000000000;-0.0026648385
881.5000000000;-0.0026631036
882.0000000000;-0.0026775582
882.5000000000;-0.0026572666
883.0000000000;-0.0026265802
883.5000000000;-0.0026074790
884.0000000000;-0.0026255511
884.5000000000;-0.0027656895
885.0000000000;-0.0029546821
885.5000000000;-0.0029617988
886.0000000000;-0.0029436038
886.5000000000;-0.0030274079
887.0000000000;-0.0030064841
887.5000000000;-0.0028885088
888.0000000000;-0.0028008842
888.5000000000;-0.0027684972
889.0000000000;-0.0027665363
889.5000000000;-0.0027575393
890.0000000000;-0.0027839320
890.5000000000;-0.0028605820
891.0000000000;-0.0029323588
891.5000000000;-0.0029573888
892.0000000000;-0.0029565538
892.5000000000;-0.0030497040
893.0000000000;-0.0032015031
893.5000000000;-0.0032674414
894.0000000000;-0.0031375031
894.5000000000;-0.0029751656
895.0000000000;-0.0030994336
895.5000000000;-0.0032461060
896.0000000000;-0.0032306716
896.5000000000;-0.0032499263
897.0000000000;-0.0033520684
897.5000000000;-0.0034706003
898.0000000000;-0.0034895763
898.5000000000;-0.0034473233
899.0000000000;-0.0034336671
899.5000000000;-0.0033205329
900.0000000000;-0.0032579119
900.5000000000;-0.0036093148
901.0000000000;-0.0039667492
901.5000000000;-0.0039553293
902.0000000000;-0.0037035304
902.5000000000;-0.0036315178
903.0000000000;-0.0039024896
903.5000000000;-0.0038096674
904.0000000000;-0.0035042134
904.5000000000;-0.0036129744
905.0000000000;-0.0037858298
905.5000000000;-0.0038411808
906.0000000000;-0.0039801155
906.5000000000;-0.0041410066
907.0000000000;-0.0041948189
907.5000000000;-0.0040886370
908.0000000000;-0.0039956141
908.5000000000;-0.0040707625
909.0000000000;-0.0041614003
909.5000000000;-0.0042296131
910.0000000000;-0.0043173423
910.5000000000;-0.0043065185
911.0000000000;-0.0041708159
911.5000000000;-0.0040471340
912.0000000000;-0.0041831536
912.5000000000;-0.0045375531
913.0000000000;-0.0046083573
913.5000000000;-0.0044896915
914.0000000000;-0.0044900617
914.5000000000;-0.0046131033
915.0000000000;-0.0046549244
915.5000000000;-0.0044431477
916.0000000000;-0.0043229195
916.5000000000;-0.0044207610
917.0000000000;-0.0045335651
917.5000000000;-0.0046299836
918.0000000000;-0.0047716955
918.5000000000;-0.0050305347
919.0000000000;-0.0051674754
919.5000000000;-0.0050693005
920.0000000000;-0.0052325241
920.5000000000;-0.0054900623
921.0000000000;-0.0053899982
921.5000000000;-0.0053233961
922.0000000000;-0.0053752852
922.5000000000;-0.0052387458
923.0000000000;-0.0051783477
923.5000000000;-0.0053949887
924.0000000000;-0.0057142735
924.5000000000;-0.0059059924
925.0000000000;-0.0058463570
925.5000000000;-0.0056619407
926.0000000000;-0.0055731898
926.5000000000;-0.0056816330
927.0000000000;-0.0056218095
927.5000000000;-0.0056037558
928.0000000000;-0.0061492892
928.5000000000;-0.0063204397
929.0000000000;-0.0058370545
929.5000000000;-0.0057523409
930.0000000000;-0.0061648847
930.5000000000;-0.0066808900
931.0000000000;-0.0068552583
931.5000000000;-0.0066721393
932.0000000000;-0.0064142318
932.5000000000;-0.0064279446
933.0000000000;-0.0066194180
933.5000000000;-0.0066472688
934.0000000000;-0.0067280107
934.5000000000;-0.0067825457
935.0000000000;-0.0064122132
935.5000000000;-0.0064246282
936.0000000000;-0.0071263062
936.5000000000;-0.0073574185
937.0000000000;-0.0071887206
937.5000000000;-0.0071287607
938.0000000000;-0.0070234067
938.5000000000;-0.0069757346
939.0000000000;-0.0071899672
939.5000000000;-0.0073428568
940.0000000000;-0.0074486472
940.5000000000;-0.0078241434
941.0000000000;-0.0080017950
941.5000000000;-0.0078182910
942.0000000000;-0.0078037973
942.5000000000;-0.0078383349
943.0000000000;-0.0077875555
943.5000000000;-0.0080457339
944.0000000000;-0.0083022444
944.5000000000;-0.0081276912
945.0000000000;-0.0080723679
945.5000000000;-0.0084009580
946.0000000000;-0.0089097954
946.5000000000;-0.0091402493
947.0000000000;-0.0090370793
947.5000000000;-0.0090164663
948.0000000000;-0.0090527870
948.5000000000;-0.0090190582
949.0000000000;-0.0089246575
949.5000000000;-0.0089819590
950.0000000000;-0.0092802914
950.5000000000;-0.0094353892
951.0000000000;-0.0093221776
951.5000000000;-0.0091493633
952.0000000000;-0.0094144978
952.5000000000;-0.0099322032
953.0000000000;-0.0100517077
953.5000000000;-0.0102135492
954.0000000000;-0.0105537614
954.5000000000;-0.0105367256
955.0000000000;-0.0105087385
955.5000000000;-0.0107413530
956.0000000000;-0.0107875699
956.5000000000;-0.0108012743
957.0000000000;-0.0111144828
957.5000000000;-0.0115807038
958.0000000000;-0.0118434615
958.5000000000;-0.0116982199
959.0000000000;-0.0117602479
959.5000000000;-0.0120297875
960.0000000000;-0.0119207921
960.5000000000;-0.0117659206
961.0000000000;-0.0118810451
961.5000000000;-0.0121562099
962.0000000000;-0.0122756353
962.5000000000;-0.0121823521
963.0000000000;-0.0123340162
963.5000000000;-0.0124794571
964.0000000000;-0.0123475613
964.5000000000;-0.0125742266
965.0000000000;-0.0129023623
965.5000000000;-0.0127376951
966.0000000000;-0.0128605030
966.5000000000;-0.0132459430
967.0000000000;-0.0130651938
967.5000000000;-0.0127629638
968.0000000000;-0.0127887111
968.5000000000;-0.0130397845
969.0000000000;-0.0130253704
969.5000000000;-0.0126729216
970.0000000000;-0.0127502754
970.5000000000;-0.0128812585
971.0000000000;-0.0126342438
971.5000000000;-0.0128985411
972.0000000000;-0.0134234112
972.5000000000;-0.0133892810
973.0000000000;-0.0131655280
973.5000000000;-0.0130943218
974.0000000000;-0.0132282749
974.5000000000;-0.0134513201
975.0000000000;-0.0135866450
975.5000000000;-0.0134795541
976.0000000000;-0.0132530974
976.5000000000;-0.0132373292
977.0000000000;-0.0137561793
977.5000000000;-0.0137732625
978.0000000000;-0.0129051888
978.5000000000;-0.0132934414
979.0000000000;-0.0144146262
979.5000000000;-0.0145059600
980.0000000000;-0.0138099156
980.5000000000;-0.0133326491
981.0000000000;-0.0138417408
981.5000000000;-0.0139535367
982.0000000000;-0.0134369200
982.5000000000;-0.0135290874
983.0000000000;-0.0137105603
983.5000000000;-0.0137204565
984.0000000000;-0.0142928129
984.5000000000;-0.0147573482
985.0000000000;-0.0144911110
985.5000000000;-0.0141478041
986.0000000000;-0.0143792005
986.5000000000;-0.0151798837
987.0000000000;-0.0152958017
987.5000000000;-0.0148074338
988.0000000000;-0.0146797821
988.5000000000;-0.0151706524
989.0000000000;-0.0155809671
989.5000000000;-0.0149918674
990.0000000000;-0.0147221601
990.5000000000;-0.0151414266
991.0000000000;-0.0150849251
991.5000000000;-0.0149588846
992.0000000000;-0.0151608707
992.5000000000;-0.0152110551
993.0000000000;-0.0147464396
993.5000000000;-0.0141277239
994.0000000000;-0.0147133805
994.5000000000;-0.0154692521
995.0000000000;-0.0149567872
995.5000000000;-0.0143850930
996.0000000000;-0.0143297007
996.5000000000;-0.0145452116
997.0000000000;-0.0147212232
997.5000000000;-0.0152265858
998.0000000000;-0.0164923854
998.5000000000;-0.0165249929
999.0000000000;-0.0152651323
999.5000000000;-0.0152522027
1000.0000000000;-0.0162370186
1000.5000000000;-0.0168390572
1001.0000000000;-0.0159520525
1001.5000000000;-0.0154970847
1002.0000000000;-0.0166933034
1002.5000000000;-0.0171087887
1003.0000000000;-0.0169012882
1003.5000000000;-0.0172444396
1004.0000000000;-0.0176093578
1004.5000000000;-0.0174722765
1005.0000000000;-0.0168229882
1005.5000000000;-0.0165886953
1006.0000000000;-0.0166708622
1006.5000000000;-0.0163004398
1007.0000000000;-0.0163144264
1007.5000000000;-0.0168518499
1008.0000000000;-0.0170028806
1008.5000000000;-0.0168223083
1009.0000000000;-0.0164620429
1009.5000000000;-0.0159047730
1010.0000000000;-0.0160802547
1010.5000000000;-0.0172649939
1011.0000000000;-0.0180541538
1011.5000000000;-0.0180845242
1012.0000000000;-0.0177275259
1012.5000000000;-0.0175455920
1013.0000000000;-0.0177773349
1013.5000000000;-0.0182153489
1014.0000000000;-0.0181151610
1014.5000000000;-0.0175835993
1015.0000000000;-0.0174784660
1015.5000000000;-0.0186314769
1016.0000000000;-0.0199336577
1016.5000000000;-0.0192380603
1017.0000000000;-0.0179036371
1017.5000000000;-0.0175037514
1018.0000000000;-0.0182677861
1018.5000000000;-0.0180360265
1019.0000000000;-0.0166327842
1019.5000000000;-0.0173434261
