182.5000000000;0.9228707552
183.0000000000;0.9555795193
183.5000000000;1.0114873648
184.0000000000;1.0748858452
184.5000000000;1.0861864090
185.0000000000;1.1167454720
185.5000000000;1.2297593355
186.0000000000;1.2980978489
186.5000000000;1.3858938217
187.0000000000;1.6503933668
187.5000000000;1.8752930164
188.0000000000;1.9894028902
188.5000000000;2.1297674179
189.0000000000;2.3056151867
189.5000000000;2.4412541389
190.0000000000;2.5345726013
190.5000000000;2.5670390129
191.0000000000;2.6036152840
191.5000000000;2.6953902245
192.0000000000;2.7436227798
192.5000000000;2.7196149826
193.0000000000;2.7221922874
193.5000000000;2.7661566734
194.0000000000;2.8097727299
194.5000000000;2.8201797009
195.0000000000;2.8033359051
195.5000000000;2.8502602577
196.0000000000;2.9509847164
196.5000000000;2.9747555256
197.0000000000;2.9518866539
197.5000000000;2.9574749470
198.0000000000;2.9569587708
198.5000000000;2.9547810555
199.0000000000;3.0127632618
199.5000000000;3.0745103359
200.0000000000;3.0356700420
200.5000000000;3.0157368183
201.0000000000;3.0826549530
201.5000000000;3.1763565540
202.0000000000;3.2319576740
202.5000000000;3.2150948048
203.0000000000;3.1902070045
203.5000000000;3.2090501785
204.0000000000;3.2401201725
204.5000000000;3.2567124367
205.0000000000;3.2559442520
205.5000000000;3.2401292324
206.0000000000;3.2158043385
206.5000000000;3.1966860294
207.0000000000;3.1933958530
207.5000000000;3.2081995010
208.0000000000;3.2055199146
208.5000000000;3.1417875290
209.0000000000;3.0959703922
209.5000000000;3.1219782829
210.0000000000;3.1749677658
210.5000000000;3.2059099674
211.0000000000;3.1885955334
211.5000000000;3.1442179680
212.0000000000;3.1116778851
212.5000000000;3.1253092289
213.0000000000;3.1798107624
213.5000000000;3.2001247406
214.0000000000;3.1798541546
214.5000000000;3.1654131413
215.0000000000;3.1580650806
215.5000000000;3.1620976925
216.0000000000;3.2097015381
216.5000000000;3.2717447281
217.0000000000;3.2538161278
217.5000000000;3.2050156593
218.0000000000;3.1953728199
218.5000000000;3.2323925495
219.0000000000;3.2919931412
219.5000000000;3.3066513538
220.0000000000;3.2933368683
220.5000000000;3.3071546555
221.0000000000;3.3406858444
221.5000000000;3.3658673763
222.0000000000;3.3467836380
222.5000000000;3.3226416111
223.0000000000;3.3610408306
223.5000000000;3.3842074871
224.0000000000;3.3165504932
224.5000000000;3.2639255524
225.0000000000;3.2655489445
225.5000000000;3.2967300415
226.0000000000;3.3253052235
226.5000000000;3.3181850910
227.0000000000;3.2858288288
227.5000000000;3.2558491230
228.0000000000;3.2571022511
228.5000000000;3.2687826157
229.0000000000;3.2465677261
229.5000000000;3.2213866711
230.0000000000;3.2213277817
230.5000000000;3.2294538021
231.0000000000;3.2230160236
231.5000000000;3.1893825531
232.0000000000;3.1732630730
232.5000000000;3.2013571262
233.0000000000;3.2018663883
233.5000000000;3.1708405018
234.0000000000;3.1958720684
234.5000000000;3.2426605225
235.0000000000;3.2227091789
235.5000000000;3.1824619770
236.0000000000;3.1755514145
236.5000000000;3.2225050926
237.0000000000;3.2619905472
237.5000000000;3.1978294849
238.0000000000;3.1739542484
238.5000000000;3.2633712292
239.0000000000;3.2806038857
239.5000000000;3.2092633247
240.0000000000;3.2272162437
240.5000000000;3.2734167576
241.0000000000;3.2339553833
241.5000000000;3.1868147850
242.0000000000;3.1797084808
242.5000000000;3.2012276649
243.0000000000;3.2292318344
243.5000000000;3.2382776737
244.0000000000;3.2352876663
244.5000000000;3.2335925102
245.0000000000;3.2390496731
245.5000000000;3.2451710701
246.0000000000;3.2391886711
246.5000000000;3.2344274521
247.0000000000;3.2378461361
247.5000000000;3.2155675888
248.0000000000;3.1716532707
248.5000000000;3.1501023769
249.0000000000;3.1673927307
249.5000000000;3.2176599503
250.0000000000;3.2242941856
250.5000000000;3.1626670361
251.0000000000;3.1240828037
251.5000000000;3.1293740273
252.0000000000;3.1537582874
252.5000000000;3.1303110123
253.0000000000;3.0536344051
253.5000000000;3.0338180065
254.0000000000;3.0664136410
254.5000000000;3.0579552650
255.0000000000;3.0272128582
255.5000000000;3.0226819515
256.0000000000;3.0364463329
256.5000000000;3.0478057861
257.0000000000;3.0319359303
257.5000000000;2.9937479496
258.0000000000;2.9564340115
258.5000000000;2.9487390518
259.0000000000;2.9675433636
259.5000000000;2.9593677521
260.0000000000;2.9292814732
260.5000000000;2.9151332378
261.0000000000;2.9010236263
261.5000000000;2.8737678528
262.0000000000;2.8510067463
262.5000000000;2.8246898651
263.0000000000;2.7747907639
263.5000000000;2.7342658043
264.0000000000;2.7188978195
264.5000000000;2.6794183254
265.0000000000;2.6211001873
265.5000000000;2.5942835808
266.0000000000;2.5836770535
266.5000000000;2.5601308346
267.0000000000;2.5370903015
267.5000000000;2.5231924057
268.0000000000;2.5108451843
268.5000000000;2.5002827644
269.0000000000;2.4947090149
269.5000000000;2.4846565723
270.0000000000;2.4675874710
270.5000000000;2.4593524933
271.0000000000;2.4604251385
271.5000000000;2.4577312469
272.0000000000;2.4446804523
272.5000000000;2.4233584404
273.0000000000;2.4083843231
273.5000000000;2.3980894089
274.0000000000;2.3747842312
274.5000000000;2.3478572369
275.0000000000;2.3317956924
275.5000000000;2.3158395290
276.0000000000;2.2941963673
276.5000000000;2.2748968601
277.0000000000;2.2579989433
277.5000000000;2.2391166687
278.0000000000;2.2206223011
278.5000000000;2.2041466236
279.0000000000;2.1861925125
279.5000000000;2.1658668518
280.0000000000;2.1453645229
280.5000000000;2.1287691593
281.0000000000;2.1165182590
281.5000000000;2.0980930328
282.0000000000;2.0723507404
282.5000000000;2.0496041775
283.0000000000;2.0319204330
283.5000000000;2.0157566071
284.0000000000;1.9933925867
284.5000000000;1.9652866125
285.0000000000;1.9428397417
285.5000000000;1.9258859158
286.0000000000;1.9078350067
286.5000000000;1.8863617182
287.0000000000;1.8640307188
287.5000000000;1.8490240574
288.0000000000;1.8402818441
288.5000000000;1.8297785521
289.0000000000;1.8145618439
289.5000000000;1.7964022160
290.0000000000;1.7828609943
290.5000000000;1.7747280598
291.0000000000;1.7658331394
291.5000000000;1.7554517984
292.0000000000;1.7453606129
292.5000000000;1.7364846468
293.0000000000;1.7284035683
293.5000000000;1.7195770741
294.0000000000;1.7123528719
294.5000000000;1.7094353437
295.0000000000;1.7051962614
295.5000000000;1.6969029903
296.0000000000;1.6900575161
296.5000000000;1.6848016977
297.0000000000;1.6779372692
297.5000000000;1.6731872559
298.0000000000;1.6723337173
298.5000000000;1.6681202650
299.0000000000;1.6603492498
299.5000000000;1.6556825638
300.0000000000;1.6528754234
300.5000000000;1.6488603354
301.0000000000;1.6453067064
301.5000000000;1.6431324482
302.0000000000;1.6413282156
302.5000000000;1.6392694712
303.0000000000;1.6367387772
303.5000000000;1.6339668036
304.0000000000;1.6314949989
304.5000000000;1.6300648451
305.0000000000;1.6285976171
305.5000000000;1.6253200769
306.0000000000;1.6213805676
306.5000000000;1.6186108589
307.0000000000;1.6182832718
307.5000000000;1.6185913086
308.0000000000;1.6158747673
308.5000000000;1.6120022535
309.0000000000;1.6098927259
309.5000000000;1.6095967293
310.0000000000;1.6089657545
310.5000000000;1.6045807600
311.0000000000;1.5995388031
311.5000000000;1.5984182358
312.0000000000;1.5996736288
312.5000000000;1.5998160839
313.0000000000;1.5951080322
313.5000000000;1.5899162292
314.0000000000;1.5908044577
314.5000000000;1.5916103125
315.0000000000;1.5876412392
315.5000000000;1.5834231377
316.0000000000;1.5809184313
316.5000000000;1.5791949034
317.0000000000;1.5772118568
317.5000000000;1.5741882324
318.0000000000;1.5700693130
318.5000000000;1.5662721395
319.0000000000;1.5650097132
319.5000000000;1.5640285015
320.0000000000;1.5602407455
320.5000000000;1.5544120073
321.0000000000;1.5492926836
321.5000000000;1.5484788418
322.0000000000;1.5484117270
322.5000000000;1.5440039635
323.0000000000;1.5403667688
323.5000000000;1.5393692255
324.0000000000;1.5345493555
324.5000000000;1.5277248621
325.0000000000;1.5251538754
325.5000000000;1.5240827799
326.0000000000;1.5209097862
326.5000000000;1.5158462524
327.0000000000;1.5110039711
327.5000000000;1.5088245869
328.0000000000;1.5063040257
328.5000000000;1.5008325577
329.0000000000;1.4956046343
329.5000000000;1.4925452471
330.0000000000;1.4912062883
330.5000000000;1.4892100096
331.0000000000;1.4846974611
331.5000000000;1.4799233675
332.0000000000;1.4763147831
332.5000000000;1.4733374119
333.0000000000;1.4709086418
333.5000000000;1.4689433575
334.0000000000;1.4661763906
334.5000000000;1.4624798298
335.0000000000;1.4596922398
335.5000000000;1.4572595358
336.0000000000;1.4537644386
336.5000000000;1.4517985582
337.0000000000;1.4519245625
337.5000000000;1.4491417408
338.0000000000;1.4448572397
338.5000000000;1.4447258711
339.0000000000;1.4457403421
339.5000000000;1.4439138174
340.0000000000;1.4403432608
340.5000000000;1.4375523329
341.0000000000;1.4379973412
341.5000000000;1.4389219284
342.0000000000;1.4375282526
342.5000000000;1.4372127056
343.0000000000;1.4375909567
343.5000000000;1.4335759878
344.0000000000;1.4300657511
344.5000000000;1.4333356619
345.0000000000;1.4361292124
345.5000000000;1.4342978001
346.0000000000;1.4323936701
346.5000000000;1.4326405525
347.0000000000;1.4349646568
347.5000000000;1.4375765324
348.0000000000;1.4390794039
348.5000000000;1.4396344423
349.0000000000;1.4400985241
349.5000000000;1.4416170120
350.0000000000;1.4447361231
350.5000000000;1.4486354589
351.0000000000;1.4502400160
351.5000000000;1.4510406256
352.0000000000;1.4557729959
352.5000000000;1.4614691734
353.0000000000;1.4645649195
353.5000000000;1.4680292606
354.0000000000;1.4723831415
354.5000000000;1.4748990536
355.0000000000;1.4779268503
355.5000000000;1.4843171835
356.0000000000;1.4905792475
356.5000000000;1.4942278862
357.0000000000;1.4960868359
357.5000000000;1.4996520281
358.0000000000;1.5078822374
358.5000000000;1.5158392191
359.0000000000;1.5194035769
359.5000000000;1.5194845200
360.0000000000;1.5229717493
360.5000000000;1.5352412462
361.0000000000;1.5471858978
361.5000000000;1.5554927588
362.0000000000;1.5618906021
362.5000000000;1.5678831339
363.0000000000;1.5749998093
363.5000000000;1.5831403732
364.0000000000;1.5924757719
364.5000000000;1.6045646667
365.0000000000;1.6161460876
365.5000000000;1.6208131313
366.0000000000;1.6248270273
366.5000000000;1.6352380514
367.0000000000;1.6467781067
367.5000000000;1.6561870575
368.0000000000;1.6644507647
368.5000000000;1.6714936495
369.0000000000;1.6777652502
369.5000000000;1.6871670485
370.0000000000;1.6995192766
370.5000000000;1.7081910372
371.0000000000;1.7148184776
371.5000000000;1.7249848843
372.0000000000;1.7370399237
372.5000000000;1.7481607199
373.0000000000;1.7568383217
373.5000000000;1.7652467489
374.0000000000;1.7770518064
374.5000000000;1.7901508808
375.0000000000;1.8018087149
375.5000000000;1.8117653131
376.0000000000;1.8213508129
376.5000000000;1.8322888613
377.0000000000;1.8418351412
377.5000000000;1.8485364914
378.0000000000;1.8579572439
378.5000000000;1.8702975512
379.0000000000;1.8798571825
379.5000000000;1.8874144554
380.0000000000;1.8956667185
380.5000000000;1.9036558867
381.0000000000;1.9133993387
381.5000000000;1.9294190407
382.0000000000;1.9381101131
382.5000000000;1.9293917418
383.0000000000;1.9314292669
383.5000000000;1.9497693777
384.0000000000;1.9564929008
384.5000000000;1.9611880779
385.0000000000;1.9841769934
385.5000000000;1.9975121021
386.0000000000;1.9885202646
386.5000000000;1.9842535257
387.0000000000;1.9914283752
387.5000000000;2.0026507378
388.0000000000;2.0085105896
388.5000000000;2.0083656311
389.0000000000;2.0155422688
389.5000000000;2.0244591236
390.0000000000;2.0187845230
390.5000000000;2.0104587078
391.0000000000;2.0095999241
391.5000000000;2.0081925392
392.0000000000;2.0086247921
392.5000000000;2.0188488960
393.0000000000;2.0250172615
393.5000000000;2.0187766552
394.0000000000;2.0175468922
394.5000000000;2.0188629627
395.0000000000;2.0060067177
395.5000000000;2.0019109249
396.0000000000;2.0215709209
396.5000000000;2.0229527950
397.0000000000;2.0052697659
397.5000000000;2.0105164051
398.0000000000;2.0165464878
398.5000000000;1.9967219830
399.0000000000;1.9857004881
399.5000000000;1.9944621325
400.0000000000;2.0014104843
400.5000000000;1.9955314398
401.0000000000;1.9788167477
401.5000000000;1.9699088335
402.0000000000;1.9722812176
402.5000000000;1.9693312645
403.0000000000;1.9594653845
403.5000000000;1.9478666782
404.0000000000;1.9320071936
404.5000000000;1.9171440601
405.0000000000;1.9173580408
405.5000000000;1.9171876907
406.0000000000;1.8950046301
406.5000000000;1.8729056120
407.0000000000;1.8645093441
407.5000000000;1.8597178459
408.0000000000;1.8501373529
408.5000000000;1.8328641653
409.0000000000;1.8166544437
409.5000000000;1.8063255548
410.0000000000;1.7969425917
410.5000000000;1.7836478949
411.0000000000;1.7642289400
411.5000000000;1.7463215590
412.0000000000;1.7345445156
412.5000000000;1.7229342461
413.0000000000;1.7087177038
413.5000000000;1.6920388937
414.0000000000;1.6751672029
414.5000000000;1.6599820852
415.0000000000;1.6446999311
415.5000000000;1.6290999651
416.0000000000;1.6136358976
416.5000000000;1.5984132290
417.0000000000;1.5835065842
417.5000000000;1.5672439337
418.0000000000;1.5484685898
418.5000000000;1.5272339582
419.0000000000;1.5081412792
419.5000000000;1.4947324991
420.0000000000;1.4807794094
420.5000000000;1.4634898901
421.0000000000;1.4456990957
421.5000000000;1.4288886786
422.0000000000;1.4127312899
422.5000000000;1.3963882923
423.0000000000;1.3800222874
423.5000000000;1.3640711308
424.0000000000;1.3482362032
424.5000000000;1.3312381506
425.0000000000;1.3124219179
425.5000000000;1.2940022945
426.0000000000;1.2778104544
426.5000000000;1.2618079185
427.0000000000;1.2453024387
427.5000000000;1.2304668427
428.0000000000;1.2161417007
428.5000000000;1.1995536089
429.0000000000;1.1815828085
429.5000000000;1.1655657291
430.0000000000;1.1510996819
430.5000000000;1.1365019083
431.0000000000;1.1216014624
431.5000000000;1.1064763069
432.0000000000;1.0913697481
432.5000000000;1.0763779879
433.0000000000;1.0614470243
433.5000000000;1.0470657349
434.0000000000;1.0338982344
434.5000000000;1.0202959776
435.0000000000;1.0058130026
435.5000000000;0.9921793938
436.0000000000;0.9787170887
436.5000000000;0.9650510550
437.0000000000;0.9519231915
437.5000000000;0.9389736652
438.0000000000;0.9260532856
438.5000000000;0.9138710499
439.0000000000;0.9020922780
439.5000000000;0.8897231221
440.0000000000;0.8772397041
440.5000000000;0.8651389480
441.0000000000;0.8532671332
441.5000000000;0.8424157500
442.0000000000;0.8318593502
442.5000000000;0.8204032183
443.0000000000;0.8086299896
443.5000000000;0.7975268364
444.0000000000;0.7872291207
444.5000000000;0.7771127224
445.0000000000;0.7668256164
445.5000000000;0.7563712597
446.0000000000;0.7463741899
446.5000000000;0.7368131280
447.0000000000;0.7267436385
447.5000000000;0.7165690064
448.0000000000;0.7072253823
448.5000000000;0.6982845664
449.0000000000;0.6893826127
449.5000000000;0.6805430055
450.0000000000;0.6716441512
450.5000000000;0.6626347899
451.0000000000;0.6538690925
451.5000000000;0.6454339623
452.0000000000;0.6369611025
452.5000000000;0.6286770105
453.0000000000;0.6208533049
453.5000000000;0.6130692959
454.0000000000;0.6050477028
454.5000000000;0.5968543291
455.0000000000;0.5888996124
455.5000000000;0.5815286636
456.0000000000;0.5743928552
456.5000000000;0.5671817064
457.0000000000;0.5599325895
457.5000000000;0.5528007150
458.0000000000;0.5459262133
458.5000000000;0.5394151807
459.0000000000;0.5329089761
459.5000000000;0.5259843469
460.0000000000;0.5189465284
460.5000000000;0.5121642351
461.0000000000;0.5055485368
461.5000000000;0.4991676807
462.0000000000;0.4929094911
462.5000000000;0.4866885543
463.0000000000;0.4808957577
463.5000000000;0.4752951860
464.0000000000;0.4694027305
464.5000000000;0.4636658430
465.0000000000;0.4580614269
465.5000000000;0.4520564377
466.0000000000;0.4462770224
466.5000000000;0.4410617352
467.0000000000;0.4354784489
467.5000000000;0.4296426177
468.0000000000;0.4243342876
468.5000000000;0.4193402529
469.0000000000;0.4141120315
469.5000000000;0.4085259140
470.0000000000;0.4029539824
470.5000000000;0.3978326619
471.0000000000;0.3930100501
471.5000000000;0.3882364333
472.0000000000;0.3835008442
472.5000000000;0.3788672090
473.0000000000;0.3744481504
473.5000000000;0.3702059388
474.0000000000;0.3657681644
474.5000000000;0.3608161509
475.0000000000;0.3559237719
475.5000000000;0.3517676592
476.0000000000;0.3478070498
476.5000000000;0.3435581028
477.0000000000;0.3392916918
477.5000000000;0.3351223469
478.0000000000;0.3310649693
478.5000000000;0.3271485269
479.0000000000;0.3232281804
479.5000000000;0.3193536401
480.0000000000;0.3156516254
480.5000000000;0.3119922280
481.0000000000;0.3082688749
481.5000000000;0.3045260012
482.0000000000;0.3009168208
482.5000000000;0.2974693477
483.0000000000;0.2940943837
483.5000000000;0.2906489968
484.0000000000;0.2873259783
484.5000000000;0.2846796811
485.0000000000;0.2808741927
485.5000000000;0.2751679420
486.0000000000;0.2730402648
486.5000000000;0.2747812867
487.0000000000;0.2729330659
487.5000000000;0.2663886845
488.0000000000;0.2623900473
488.5000000000;0.2601402700
489.0000000000;0.2569181919
489.5000000000;0.2538582385
490.0000000000;0.2514370382
490.5000000000;0.2490387857
491.0000000000;0.2464035302
491.5000000000;0.2435623258
492.0000000000;0.2407762557
492.5000000000;0.2383096516
493.0000000000;0.2362489253
493.5000000000;0.2341326922
494.0000000000;0.2315553427
494.5000000000;0.2287996858
495.0000000000;0.2261751443
495.5000000000;0.2237902731
496.0000000000;0.2215641737
496.5000000000;0.2194495201
497.0000000000;0.2174555808
497.5000000000;0.2153640985
498.0000000000;0.2130355239
498.5000000000;0.2109597176
499.0000000000;0.2093523294
499.5000000000;0.2076483816
500.0000000000;0.2055779248
500.5000000000;0.2033237666
501.0000000000;0.2014016211
501.5000000000;0.1999707669
502.0000000000;0.1982911080
502.5000000000;0.1962761432
503.0000000000;0.1944765896
503.5000000000;0.1927912831
504.0000000000;0.1909878552
504.5000000000;0.1891930848
505.0000000000;0.1875767559
505.5000000000;0.1862008423
506.0000000000;0.1847157925
506.5000000000;0.1829482168
507.0000000000;0.1813336015
507.5000000000;0.1799375415
508.0000000000;0.1785339862
508.5000000000;0.1770578772
509.0000000000;0.1754987687
509.5000000000;0.1739985347
510.0000000000;0.1726307273
510.5000000000;0.1713377684
511.0000000000;0.1700298935
511.5000000000;0.1686841995
512.0000000000;0.1673868746
512.5000000000;0.1661194861
513.0000000000;0.1648073047
513.5000000000;0.1634141803
514.0000000000;0.1619929075
514.5000000000;0.1607518494
515.0000000000;0.1596603394
515.5000000000;0.1585357189
516.0000000000;0.1573894024
516.5000000000;0.1562405825
517.0000000000;0.1550575048
517.5000000000;0.1539194584
518.0000000000;0.1529170722
518.5000000000;0.1518557817
519.0000000000;0.1506665796
519.5000000000;0.1496048570
520.0000000000;0.1486248672
520.5000000000;0.1475246400
521.0000000000;0.1464723647
521.5000000000;0.1455268264
522.0000000000;0.1443868577
522.5000000000;0.1432022750
523.0000000000;0.1423289925
523.5000000000;0.1414615065
524.0000000000;0.1403923929
524.5000000000;0.1393616349
525.0000000000;0.1384506971
525.5000000000;0.1376025677
526.0000000000;0.1367529929
526.5000000000;0.1358933747
527.0000000000;0.1350870878
527.5000000000;0.1342826486
528.0000000000;0.1333892792
528.5000000000;0.1324476004
529.0000000000;0.1315292269
529.5000000000;0.1306848228
530.0000000000;0.1299019605
530.5000000000;0.1291324198
531.0000000000;0.1283119917
531.5000000000;0.1274365783
532.0000000000;0.1265783459
532.5000000000;0.1257306188
533.0000000000;0.1248921826
533.5000000000;0.1242147237
534.0000000000;0.1236480996
534.5000000000;0.1228922382
535.0000000000;0.1220360622
535.5000000000;0.1212881356
536.0000000000;0.1205410063
536.5000000000;0.1197403893
537.0000000000;0.1189796999
537.5000000000;0.1182949468
538.0000000000;0.1176656187
538.5000000000;0.1170148253
539.0000000000;0.1163348183
539.5000000000;0.1156950295
540.0000000000;0.1150126606
540.5000000000;0.1142115518
541.0000000000;0.1134285852
541.5000000000;0.1127538383
542.0000000000;0.1121820956
542.5000000000;0.1116312146
543.0000000000;0.1109948680
543.5000000000;0.1102337539
544.0000000000;0.1094573587
544.5000000000;0.1088472754
545.0000000000;0.1083051637
545.5000000000;0.1076853797
546.0000000000;0.1069995835
546.5000000000;0.1062932834
547.0000000000;0.1056246981
547.5000000000;0.1050988734
548.0000000000;0.1047155932
548.5000000000;0.1042202786
549.0000000000;0.1035208255
549.5000000000;0.1027254462
550.0000000000;0.1020308584
550.5000000000;0.1014981866
551.0000000000;0.1009007767
551.5000000000;0.1002281904
552.0000000000;0.0996366069
552.5000000000;0.0990643501
553.0000000000;0.0984732956
553.5000000000;0.0980083793
554.0000000000;0.0975593701
554.5000000000;0.0968948007
555.0000000000;0.0962310508
555.5000000000;0.0957389772
556.0000000000;0.0952690020
556.5000000000;0.0947402418
557.0000000000;0.0941656604
557.5000000000;0.0936414376
558.0000000000;0.0931628793
558.5000000000;0.0925554782
559.0000000000;0.0918630958
559.5000000000;0.0912545025
560.0000000000;0.0907724425
560.5000000000;0.0903493613
561.0000000000;0.0898364335
561.5000000000;0.0892759860
562.0000000000;0.0887727961
562.5000000000;0.0882632434
563.0000000000;0.0877003297
563.5000000000;0.0871068314
564.0000000000;0.0865539163
564.5000000000;0.0860919803
565.0000000000;0.0856356472
565.5000000000;0.0851016864
566.0000000000;0.0844601393
566.5000000000;0.0838152617
567.0000000000;0.0832517296
567.5000000000;0.0826209784
568.0000000000;0.0819558054
568.5000000000;0.0815524310
569.0000000000;0.0815990567
569.5000000000;0.0818672404
570.0000000000;0.0813988671
570.5000000000;0.0805627778
571.0000000000;0.0809751004
571.5000000000;0.0827340856
572.0000000000;0.0839290917
572.5000000000;0.0821598247
573.0000000000;0.0789295882
573.5000000000;0.0774410591
574.0000000000;0.0776317045
574.5000000000;0.0783645213
575.0000000000;0.0783337429
575.5000000000;0.0776697248
576.0000000000;0.0772676989
576.5000000000;0.0763318688
577.0000000000;0.0749701858
577.5000000000;0.0752394572
578.0000000000;0.0760164410
578.5000000000;0.0749286264
579.0000000000;0.0728006512
579.5000000000;0.0713605061
580.0000000000;0.0718708113
580.5000000000;0.0729382858
581.0000000000;0.0727881789
581.5000000000;0.0735488161
582.0000000000;0.0751411393
582.5000000000;0.0747194961
583.0000000000;0.0728081837
583.5000000000;0.0716001168
584.0000000000;0.0715917274
584.5000000000;0.0720505342
585.0000000000;0.0718000233
585.5000000000;0.0711825714
586.0000000000;0.0707935989
586.5000000000;0.0701743811
587.0000000000;0.0693852976
587.5000000000;0.0690704286
588.0000000000;0.0691633597
588.5000000000;0.0692588985
589.0000000000;0.0688171089
589.5000000000;0.0679022148
590.0000000000;0.0671494603
590.5000000000;0.0666917562
591.0000000000;0.0664002299
591.5000000000;0.0660938472
592.0000000000;0.0656468570
592.5000000000;0.0651033670
593.0000000000;0.0649105012
593.5000000000;0.0649503320
594.0000000000;0.0642425641
594.5000000000;0.0634049773
595.0000000000;0.0635203719
595.5000000000;0.0634844750
596.0000000000;0.0627091974
596.5000000000;0.0619667098
597.0000000000;0.0615505874
597.5000000000;0.0612826720
598.0000000000;0.0607471727
598.5000000000;0.0600063019
599.0000000000;0.0596582182
599.5000000000;0.0593869202
600.0000000000;0.0587932989
600.5000000000;0.0584502928
601.0000000000;0.0584679730
601.5000000000;0.0583555512
602.0000000000;0.0578244179
602.5000000000;0.0570326522
603.0000000000;0.0568427555
603.5000000000;0.0570723116
604.0000000000;0.0568057001
604.5000000000;0.0561216176
605.0000000000;0.0554739609
605.5000000000;0.0551860780
606.0000000000;0.0551161282
606.5000000000;0.0549332388
607.0000000000;0.0547199957
607.5000000000;0.0545629486
608.0000000000;0.0543968156
608.5000000000;0.0541382618
609.0000000000;0.0537929088
609.5000000000;0.0536984541
610.0000000000;0.0538287051
610.5000000000;0.0536727682
611.0000000000;0.0533958040
611.5000000000;0.0533282571
612.0000000000;0.0532328002
612.5000000000;0.0530343764
613.0000000000;0.0529274791
613.5000000000;0.0529168770
614.0000000000;0.0528917536
614.5000000000;0.0526920557
615.0000000000;0.0524484068
615.5000000000;0.0524671264
616.0000000000;0.0523754880
616.5000000000;0.0519217327
617.0000000000;0.0515716262
617.5000000000;0.0515221469
618.0000000000;0.0516227596
618.5000000000;0.0515370741
619.0000000000;0.0512187220
619.5000000000;0.0511421412
620.0000000000;0.0512384549
620.5000000000;0.0511399359
621.0000000000;0.0507067740
621.5000000000;0.0501825027
622.0000000000;0.0501441136
622.5000000000;0.0503080115
623.0000000000;0.0501658693
623.5000000000;0.0498335287
624.0000000000;0.0495101437
624.5000000000;0.0493143573
625.0000000000;0.0489825048
625.5000000000;0.0483994074
626.0000000000;0.0481550433
626.5000000000;0.0481979214
627.0000000000;0.0479606539
627.5000000000;0.0477203541
628.0000000000;0.0476712249
628.5000000000;0.0473445542
629.0000000000;0.0468820147
629.5000000000;0.0467411689
630.0000000000;0.0466083512
630.5000000000;0.0462333933
631.0000000000;0.0457883961
631.5000000000;0.0454392768
632.0000000000;0.0452631041
632.5000000000;0.0451500602
633.0000000000;0.0449970029
633.5000000000;0.0447639823
634.0000000000;0.0444652624
634.5000000000;0.0441589355
635.0000000000;0.0439492315
635.5000000000;0.0438356213
636.0000000000;0.0437192470
636.5000000000;0.0435914584
637.0000000000;0.0434646681
637.5000000000;0.0433231816
638.0000000000;0.0431443341
638.5000000000;0.0429056063
639.0000000000;0.0426178016
639.5000000000;0.0423550941
640.0000000000;0.0422558673
640.5000000000;0.0422149748
641.0000000000;0.0420439281
641.5000000000;0.0418424308
642.0000000000;0.0416901521
642.5000000000;0.0415562540
643.0000000000;0.0414933078
643.5000000000;0.0415182784
644.0000000000;0.0414249934
644.5000000000;0.0411980115
645.0000000000;0.0410414152
645.5000000000;0.0409751870
646.0000000000;0.0409322046
646.5000000000;0.0408373475
647.0000000000;0.0407210477
647.5000000000;0.0406706408
648.0000000000;0.0406127907
648.5000000000;0.0405075364
649.0000000000;0.0404469743
649.5000000000;0.0403933674
650.0000000000;0.0402537808
650.5000000000;0.0400874019
651.0000000000;0.0399666429
651.5000000000;0.0399222933
652.0000000000;0.0399152562
652.5000000000;0.0398496129
653.0000000000;0.0395828597
653.5000000000;0.0394335873
654.0000000000;0.0398352481
654.5000000000;0.0387390740
655.0000000000;0.0352448560
655.5000000000;0.0352898091
656.0000000000;0.0382681116
656.5000000000;0.0451824553
657.0000000000;0.0520792603
657.5000000000;0.0430272706
658.0000000000;0.0365744680
658.5000000000;0.0383424200
659.0000000000;0.0383451022
659.5000000000;0.0374796912
660.0000000000;0.0373531058
660.5000000000;0.0372018069
661.0000000000;0.0369473286
661.5000000000;0.0367941670
662.0000000000;0.0365777090
662.5000000000;0.0363211073
663.0000000000;0.0362252966
663.5000000000;0.0360572711
664.0000000000;0.0356558301
664.5000000000;0.0353285298
665.0000000000;0.0351585113
665.5000000000;0.0350056030
666.0000000000;0.0347335637
666.5000000000;0.0343466923
667.0000000000;0.0340473242
667.5000000000;0.0338581130
668.0000000000;0.0336885266
668.5000000000;0.0334727913
669.0000000000;0.0332485288
669.5000000000;0.0331354700
670.0000000000;0.0330225751
670.5000000000;0.0327921174
671.0000000000;0.0325550288
671.5000000000;0.0323685333
672.0000000000;0.0322090425
672.5000000000;0.0320496187
673.0000000000;0.0318636037
673.5000000000;0.0316315331
674.0000000000;0.0314072557
674.5000000000;0.0312524326
675.0000000000;0.0310774352
675.5000000000;0.0308611095
676.0000000000;0.0307014640
676.5000000000;0.0305328686
677.0000000000;0.0302843582
677.5000000000;0.0301008560
678.0000000000;0.0300149340
678.5000000000;0.0299185868
679.0000000000;0.0297651794
679.5000000000;0.0295905974
680.0000000000;0.0295237601
680.5000000000;0.0294537563
681.0000000000;0.0291962139
681.5000000000;0.0290459059
682.0000000000;0.0290719531
682.5000000000;0.0288767722
683.0000000000;0.0285870209
683.5000000000;0.0285010692
684.0000000000;0.0284756254
684.5000000000;0.0284568202
685.0000000000;0.0285445154
685.5000000000;0.0285986662
686.0000000000;0.0284650102
686.5000000000;0.0281818211
687.0000000000;0.0279109869
687.5000000000;0.0278253201
688.0000000000;0.0277941730
688.5000000000;0.0276907552
689.0000000000;0.0275425278
689.5000000000;0.0274565276
690.0000000000;0.0275053065
690.5000000000;0.0275272653
691.0000000000;0.0274614170
691.5000000000;0.0274006445
692.0000000000;0.0273049250
692.5000000000;0.0271522272
693.0000000000;0.0270938277
693.5000000000;0.0270797741
694.0000000000;0.0269297287
694.5000000000;0.0267685149
695.0000000000;0.0266813822
695.5000000000;0.0265363175
696.0000000000;0.0263419244
696.5000000000;0.0262072012
697.0000000000;0.0262191407
697.5000000000;0.0262659956
698.0000000000;0.0260649137
698.5000000000;0.0257736649
699.0000000000;0.0256163813
699.5000000000;0.0254780184
700.0000000000;0.0253090747
700.5000000000;0.0251530986
701.0000000000;0.0250093453
701.5000000000;0.0248642173
702.0000000000;0.0247120559
702.5000000000;0.0245696735
703.0000000000;0.0244392045
703.5000000000;0.0242397264
704.0000000000;0.0239855070
704.5000000000;0.0238023959
705.0000000000;0.0236535147
705.5000000000;0.0234747808
706.0000000000;0.0233174637
706.5000000000;0.0232199822
707.0000000000;0.0231712423
707.5000000000;0.0230626129
708.0000000000;0.0228358489
708.5000000000;0.0225627143
709.0000000000;0.0222900659
709.5000000000;0.0220394693
710.0000000000;0.0218389723
710.5000000000;0.0216655396
711.0000000000;0.0214482918
711.5000000000;0.0212459620
712.0000000000;0.0211165547
712.5000000000;0.0209851488
713.0000000000;0.0208438132
713.5000000000;0.0207290743
714.0000000000;0.0205615312
714.5000000000;0.0203256514
715.0000000000;0.0201467555
715.5000000000;0.0200177245
716.0000000000;0.0198505856
716.5000000000;0.0195803419
717.0000000000;0.0192564819
717.5000000000;0.0190256778
718.0000000000;0.0189081877
718.5000000000;0.0188301578
719.0000000000;0.0186431557
719.5000000000;0.0183611978
720.0000000000;0.0181015003
720.5000000000;0.0178833455
721.0000000000;0.0176947881
721.5000000000;0.0175146572
722.0000000000;0.0173413642
722.5000000000;0.0171712786
723.0000000000;0.0169689395
723.5000000000;0.0167790744
724.0000000000;0.0166869406
724.5000000000;0.0165639520
725.0000000000;0.0163617488
725.5000000000;0.0162946712
726.0000000000;0.0163027272
726.5000000000;0.0161915291
727.0000000000;0.0160140712
727.5000000000;0.0158114228
728.0000000000;0.0155520253
728.5000000000;0.0153572587
729.0000000000;0.0153022232
729.5000000000;0.0151856737
730.0000000000;0.0150205055
730.5000000000;0.0149924261
731.0000000000;0.0150269130
731.5000000000;0.0149872499
732.0000000000;0.0147840008
732.5000000000;0.0145122111
733.0000000000;0.0143267242
733.5000000000;0.0142187690
734.0000000000;0.0141742015
734.5000000000;0.0141972015
735.0000000000;0.0142179504
735.5000000000;0.0141629968
736.0000000000;0.0140157742
736.5000000000;0.0138441324
737.0000000000;0.0137401801
737.5000000000;0.0136428680
738.0000000000;0.0134840403
738.5000000000;0.0132679930
739.0000000000;0.0131769041
739.5000000000;0.0133208707
740.0000000000;0.0134347649
740.5000000000;0.0133883748
741.0000000000;0.0132308993
741.5000000000;0.0130495792
742.0000000000;0.0129221706
742.5000000000;0.0128722033
743.0000000000;0.0128130931
743.5000000000;0.0126686366
744.0000000000;0.0125972843
744.5000000000;0.0126155103
745.0000000000;0.0125585264
745.5000000000;0.0124650290
746.0000000000;0.0123991612
746.5000000000;0.0123075852
747.0000000000;0.0122688627
747.5000000000;0.0123752058
748.0000000000;0.0123411734
748.5000000000;0.0121015022
749.0000000000;0.0119761219
749.5000000000;0.0119175315
750.0000000000;0.0118188383
750.5000000000;0.0118917534
751.0000000000;0.0119928410
751.5000000000;0.0117514757
752.0000000000;0.0114854919
752.5000000000;0.0114672612
753.0000000000;0.0115388446
753.5000000000;0.0115967821
754.0000000000;0.0115891946
754.5000000000;0.0114435311
755.0000000000;0.0112013537
755.5000000000;0.0110247349
756.0000000000;0.0110242255
756.5000000000;0.0111705344
757.0000000000;0.0112327095
757.5000000000;0.0111736087
758.0000000000;0.0110833906
758.5000000000;0.0109829614
759.0000000000;0.0108705424
759.5000000000;0.0107324934
760.0000000000;0.0105182501
760.5000000000;0.0102620041
761.0000000000;0.0102065699
761.5000000000;0.0101697762
762.0000000000;0.0097826114
762.5000000000;0.0094543882
763.0000000000;0.0094584562
763.5000000000;0.0095581431
764.0000000000;0.0095449518
764.5000000000;0.0093588056
765.0000000000;0.0092332792
765.5000000000;0.0091425525
766.0000000000;0.0088581983
766.5000000000;0.0084998813
767.0000000000;0.0082446095
767.5000000000;0.0081721237
768.0000000000;0.0082412036
768.5000000000;0.0083434936
769.0000000000;0.0083738882
769.5000000000;0.0082320413
770.0000000000;0.0078673549
770.5000000000;0.0075307209
771.0000000000;0.0074010766
771.5000000000;0.0073104389
772.0000000000;0.0071209050
772.5000000000;0.0068128332
773.0000000000;0.0065926886
773.5000000000;0.0065277233
774.0000000000;0.0064813290
774.5000000000;0.0062895427
775.0000000000;0.0059357407
775.5000000000;0.0056997850
776.0000000000;0.0056544757
776.5000000000;0.0056759878
777.0000000000;0.0055629327
777.5000000000;0.0053320718
778.0000000000;0.0052455836
778.5000000000;0.0052324249
779.0000000000;0.0051826737
779.5000000000;0.0052130017
780.0000000000;0.0052050385
780.5000000000;0.0049651735
781.0000000000;0.0048160842
781.5000000000;0.0048528663
782.0000000000;0.0047331657
782.5000000000;0.0045559527
783.0000000000;0.0044942200
783.5000000000;0.0043755956
784.0000000000;0.0041667246
784.5000000000;0.0039772047
785.0000000000;0.0038650271
785.5000000000;0.0038112705
786.0000000000;0.0037137100
786.5000000000;0.0035546632
787.0000000000;0.0033828169
787.5000000000;0.0032869233
788.0000000000;0.0032934961
788.5000000000;0.0033554574
789.0000000000;0.0033564819
789.5000000000;0.0032462503
790.0000000000;0.0031016408
790.5000000000;0.0030045891
791.0000000000;0.0029713640
791.5000000000;0.0028606222
792.0000000000;0.0026721908
792.5000000000;0.0025349944
793.0000000000;0.0024442337
793.5000000000;0.0024317172
794.0000000000;0.0026146814
794.5000000000;0.0027525844
795.0000000000;0.0025859952
795.5000000000;0.0023403629
796.0000000000;0.0021693856
796.5000000000;0.0020712372
797.0000000000;0.0020000532
797.5000000000;0.0019444755
798.0000000000;0.0019578140
798.5000000000;0.0019757790
799.0000000000;0.0019154795
799.5000000000;0.0018401347
800.0000000000;0.0017824053
800.5000000000;0.0017275575
801.0000000000;0.0016939903
801.5000000000;0.0016818496
802.0000000000;0.0016435060
802.5000000000;0.0015381312
803.0000000000;0.0013773111
803.5000000000;0.0012925965
804.0000000000;0.0012882890
804.5000000000;0.0012495185
805.0000000000;0.0011763363
805.5000000000;0.0011430118
806.0000000000;0.0012537726
806.5000000000;0.0013636582
807.0000000000;0.0012834516
807.5000000000;0.0011078836
808.0000000000;0.0009956356
808.5000000000;0.0010514499
809.0000000000;0.0010555640
809.5000000000;0.0008919273
810.0000000000;0.0007691778
810.5000000000;0.0007706314
811.0000000000;0.0008382912
811.5000000000;0.0007894360
812.0000000000;0.0006612066
812.5000000000;0.0006574121
813.0000000000;0.0006705944
813.5000000000;0.0006371861
814.0000000000;0.0006908757
814.5000000000;0.0006982504
815.0000000000;0.0005334811
815.5000000000;0.0004982788
816.0000000000;0.0005747582
816.5000000000;0.0004740541
817.0000000000;0.0003161471
817.5000000000;0.0002396915
818.0000000000;0.0002173619
818.5000000000;0.0001979039
819.0000000000;0.0001520870
819.5000000000;0.0001212060
820.0000000000;0.0001425234
820.5000000000;0.0002072842
821.0000000000;0.0001657015
821.5000000000;0.0000007874
822.0000000000;-0.0000853135
822.5000000000;-0.0001113203
823.0000000000;-0.0001464278
823.5000000000;-0.0001023548
824.0000000000;-0.0000495754
824.5000000000;-0.0001438445
825.0000000000;-0.0002728679
825.5000000000;-0.0003263427
826.0000000000;-0.0003007646
826.5000000000;-0.0002662392
827.0000000000;-0.0002834530
827.5000000000;-0.0003233293
828.0000000000;-0.0003844631
828.5000000000;-0.0004780799
829.0000000000;-0.0005491963
829.5000000000;-0.0005969979
830.0000000000;-0.0006848879
830.5000000000;-0.0007159414
831.0000000000;-0.0006473019
831.5000000000;-0.0006677092
832.0000000000;-0.0007287886
832.5000000000;-0.0006833227
833.0000000000;-0.0006722969
833.5000000000;-0.0007572647
834.0000000000;-0.0008310160
834.5000000000;-0.0007349677
835.0000000000;-0.0005113595
835.5000000000;-0.0005505168
836.0000000000;-0.0007531024
836.5000000000;-0.0008291949
837.0000000000;-0.0009242300
837.5000000000;-0.0010297272
838.0000000000;-0.0009641824
838.5000000000;-0.0008993888
839.0000000000;-0.0009734061
839.5000000000;-0.0010745995
840.0000000000;-0.0010851541
840.5000000000;-0.0009857703
841.0000000000;-0.0009832836
841.5000000000;-0.0010574867
842.0000000000;-0.0010159366
842.5000000000;-0.0009528698
843.0000000000;-0.0009872476
843.5000000000;-0.0011340743
844.0000000000;-0.0012525765
844.5000000000;-0.0012464346
845.0000000000;-0.0012658421
845.5000000000;-0.0012738140
846.0000000000;-0.0011515218
846.5000000000;-0.0011240017
847.0000000000;-0.0012636654
847.5000000000;-0.0013695654
848.0000000000;-0.0013873364
848.5000000000;-0.0013266115
849.0000000000;-0.0011986111
849.5000000000;-0.0011228732
850.0000000000;-0.0011933517
850.5000000000;-0.0011955732
851.0000000000;-0.0010809731
851.5000000000;-0.0010171181
852.0000000000;-0.0010268800
852.5000000000;-0.0010263434
853.0000000000;-0.0008814480
853.5000000000;-0.0007755597
854.0000000000;-0.0008971391
854.5000000000;-0.0009738239
855.0000000000;-0.0009356299
855.5000000000;-0.0009401775
856.0000000000;-0.0009986473
856.5000000000;-0.0010748759
857.0000000000;-0.0011306709
857.5000000000;-0.0011318796
858.0000000000;-0.0010754672
858.5000000000;-0.0010220117
859.0000000000;-0.0009964781
859.5000000000;-0.0009996330
860.0000000000;-0.0010592602
860.5000000000;-0.0011220502
861.0000000000;-0.0010738804
861.5000000000;-0.0010578487
862.0000000000;-0.0011408264
862.5000000000;-0.0010998825
863.0000000000;-0.0009739422
863.5000000000;-0.0009369521
864.0000000000;-0.0010354792
864.5000000000;-0.0011689536
865.0000000000;-0.0011631132
865.5000000000;-0.0010705808
866.0000000000;-0.0009989796
866.5000000000;-0.0010096247
867.0000000000;-0.0009772959
867.5000000000;-0.0008356003
868.0000000000;-0.0008340792
868.5000000000;-0.0009606761
869.0000000000;-0.0010273173
869.5000000000;-0.0010527028
870.0000000000;-0.0010735957
870.5000000000;-0.0010818437
871.0000000000;-0.0010142205
871.5000000000;-0.0009029906
872.0000000000;-0.0009529446
872.5000000000;-0.0010018251
873.0000000000;-0.0008570591
873.5000000000;-0.0008633499
874.0000000000;-0.0009977403
874.5000000000;-0.0009346352
875.0000000000;-0.0008866637
875.5000000000;-0.0010005161
876.0000000000;-0.0011109532
876.5000000000;-0.0010966839
877.0000000000;-0.0009814111
877.5000000000;-0.0010083826
878.0000000000;-0.0011120577
878.5000000000;-0.0010546217
879.0000000000;-0.0008380461
879.5000000000;-0.0007180857
880.0000000000;-0.0010168834
880.5000000000;-0.0012271358
881.0000000000;-0.0010953918
881.5000000000;-0.0012080455
882.0000000000;-0.0013524859
882.5000000000;-0.0011704465
883.0000000000;-0.0011329738
883.5000000000;-0.0012408752
884.0000000000;-0.0011586556
884.5000000000;-0.0011484476
885.0000000000;-0.0013221418
885.5000000000;-0.0014330116
886.0000000000;-0.0014094823
886.5000000000;-0.0013292879
887.0000000000;-0.0013705475
887.5000000000;-0.0013964486
888.0000000000;-0.0012510398
888.5000000000;-0.0012856085
889.0000000000;-0.0014113159
889.5000000000;-0.0012242579
890.0000000000;-0.0011641741
890.5000000000;-0.0014268061
891.0000000000;-0.0015714878
891.5000000000;-0.0014606143
892.0000000000;-0.0012651578
892.5000000000;-0.0014110379
893.0000000000;-0.0016968134
893.5000000000;-0.0016592628
894.0000000000;-0.0014590116
894.5000000000;-0.0013737060
895.0000000000;-0.0015754899
895.5000000000;-0.0017429824
896.0000000000;-0.0016821127
896.5000000000;-0.0016147080
897.0000000000;-0.0017109878
897.5000000000;-0.0019133834
898.0000000000;-0.0017884147
898.5000000000;-0.0015366228
899.0000000000;-0.0016153698
899.5000000000;-0.0016617104
900.0000000000;-0.0016165569
900.5000000000;-0.0018322114
901.0000000000;-0.0020451804
901.5000000000;-0.0020220375
902.0000000000;-0.0019188409
902.5000000000;-0.0019129162
903.0000000000;-0.0020417364
903.5000000000;-0.0020372290
904.0000000000;-0.0019058540
904.5000000000;-0.0018461931
905.0000000000;-0.0018664344
905.5000000000;-0.0019601898
906.0000000000;-0.0021208564
906.5000000000;-0.0021710680
907.0000000000;-0.0020692267
907.5000000000;-0.0020589519
908.0000000000;-0.0021236588
908.5000000000;-0.0021694647
909.0000000000;-0.0022686140
909.5000000000;-0.0023663137
910.0000000000;-0.0023399265
910.5000000000;-0.0022472802
911.0000000000;-0.0021681667
911.5000000000;-0.0021565303
912.0000000000;-0.0022437596
912.5000000000;-0.0024094742
913.0000000000;-0.0025617762
913.5000000000;-0.0026083714
914.0000000000;-0.0025354722
914.5000000000;-0.0024993881
915.0000000000;-0.0024919165
915.5000000000;-0.0024100794
916.0000000000;-0.0023214729
916.5000000000;-0.0023470370
917.0000000000;-0.0025563724
917.5000000000;-0.0026596915
918.0000000000;-0.0026025812
918.5000000000;-0.0028056751
919.0000000000;-0.0029831859
919.5000000000;-0.0028759444
920.0000000000;-0.0031030348
920.5000000000;-0.0034135059
921.0000000000;-0.0031887819
921.5000000000;-0.0029696671
922.0000000000;-0.0030291283
922.5000000000;-0.0031428202
923.0000000000;-0.0032989827
923.5000000000;-0.0034584969
924.0000000000;-0.0034590585
924.5000000000;-0.0033760120
925.0000000000;-0.0033757971
925.5000000000;-0.0035453150
926.0000000000;-0.0036826241
926.5000000000;-0.0035367615
927.0000000000;-0.0032917999
927.5000000000;-0.0033133214
928.0000000000;-0.0038293807
928.5000000000;-0.0040420652
929.0000000000;-0.0037374699
929.5000000000;-0.0037616619
930.0000000000;-0.0040248428
930.5000000000;-0.0041860393
931.0000000000;-0.0042379783
931.5000000000;-0.0041540400
932.0000000000;-0.0039926306
932.5000000000;-0.0041078241
933.0000000000;-0.0043894341
933.5000000000;-0.0044208197
934.0000000000;-0.0043365806
934.5000000000;-0.0042133965
935.0000000000;-0.0039900872
935.5000000000;-0.0041742884
936.0000000000;-0.0048078555
936.5000000000;-0.0049210102
937.0000000000;-0.0046529048
937.5000000000;-0.0045701596
938.0000000000;-0.0047113923
938.5000000000;-0.0047883000
939.0000000000;-0.0045874589
939.5000000000;-0.0047472827
940.0000000000;-0.0052333376
940.5000000000;-0.0052923462
941.0000000000;-0.0049882350
941.5000000000;-0.0047533289
942.0000000000;-0.0050411490
942.5000000000;-0.0053677149
943.0000000000;-0.0052904915
943.5000000000;-0.0052566994
944.0000000000;-0.0054236767
944.5000000000;-0.0056535103
945.0000000000;-0.0056827483
945.5000000000;-0.0055151847
946.0000000000;-0.0054121492
946.5000000000;-0.0056315879
947.0000000000;-0.0059439540
947.5000000000;-0.0057609077
948.0000000000;-0.0057406141
948.5000000000;-0.0062270318
949.0000000000;-0.0063891564
949.5000000000;-0.0061052828
950.0000000000;-0.0058588763
950.5000000000;-0.0064202808
951.0000000000;-0.0068003749
951.5000000000;-0.0058184853
952.0000000000;-0.0055787186
952.5000000000;-0.0064587970
953.0000000000;-0.0069196117
953.5000000000;-0.0070774159
954.0000000000;-0.0072221518
954.5000000000;-0.0072343387
955.0000000000;-0.0070128818
955.5000000000;-0.0068449397
956.0000000000;-0.0074661244
956.5000000000;-0.0078105796
957.0000000000;-0.0069934120
957.5000000000;-0.0068948194
958.0000000000;-0.0076513975
958.5000000000;-0.0081018880
959.0000000000;-0.0081669679
959.5000000000;-0.0080790212
960.0000000000;-0.0080680577
960.5000000000;-0.0079921754
961.0000000000;-0.0080241757
961.5000000000;-0.0086559104
962.0000000000;-0.0087798834
962.5000000000;-0.0079651726
963.0000000000;-0.0079503823
963.5000000000;-0.0084581533
964.0000000000;-0.0085612237
964.5000000000;-0.0087298183
965.0000000000;-0.0089266626
965.5000000000;-0.0087901661
966.0000000000;-0.0086423829
966.5000000000;-0.0086982623
967.0000000000;-0.0088943671
967.5000000000;-0.0090371156
968.0000000000;-0.0090484768
968.5000000000;-0.0090089543
969.0000000000;-0.0087691993
969.5000000000;-0.0084315361
970.0000000000;-0.0085800001
970.5000000000;-0.0087196231
971.0000000000;-0.0083714528
971.5000000000;-0.0084464354
972.0000000000;-0.0090891207
972.5000000000;-0.0097252047
973.0000000000;-0.0097248871
973.5000000000;-0.0091562411
974.0000000000;-0.0087306807
974.5000000000;-0.0090420833
975.0000000000;-0.0097167362
975.5000000000;-0.0095689744
976.0000000000;-0.0093497783
976.5000000000;-0.0097348001
977.0000000000;-0.0100677470
977.5000000000;-0.0095579494
978.0000000000;-0.0084334444
978.5000000000;-0.0087922923
979.0000000000;-0.0096508302
979.5000000000;-0.0091087017
980.0000000000;-0.0086963484
980.5000000000;-0.0091695078
981.0000000000;-0.0099174241
981.5000000000;-0.0096593080
982.0000000000;-0.0087295910
982.5000000000;-0.0088939304
983.0000000000;-0.0093939919
983.5000000000;-0.0094425380
984.0000000000;-0.0093972143
984.5000000000;-0.0096536772
985.0000000000;-0.0102318423
985.5000000000;-0.0105164535
986.0000000000;-0.0100850314
986.5000000000;-0.0093529290
987.0000000000;-0.0101354579
987.5000000000;-0.0110548120
988.0000000000;-0.0099731963
988.5000000000;-0.0099090859
989.0000000000;-0.0109858224
989.5000000000;-0.0105789602
990.0000000000;-0.0098928651
990.5000000000;-0.0099378480
991.0000000000;-0.0102618309
991.5000000000;-0.0103425412
992.0000000000;-0.0100060990
992.5000000000;-0.0096083665
993.0000000000;-0.0095966598
993.5000000000;-0.0099089397
994.0000000000;-0.0096078208
994.5000000000;-0.0092990045
995.0000000000;-0.0099297259
995.5000000000;-0.0108143445
996.0000000000;-0.0107093798
996.5000000000;-0.0091058370
997.0000000000;-0.0085078366
997.5000000000;-0.0094601130
998.0000000000;-0.0102952095
998.5000000000;-0.0103399018
999.0000000000;-0.0099413330
999.5000000000;-0.0100625828
1000.0000000000;-0.0102077648
1000.5000000000;-0.0099741854
1001.0000000000;-0.0098697310
1001.5000000000;-0.0102470471
1002.0000000000;-0.0109630032
1002.5000000000;-0.0112332348
1003.0000000000;-0.0113475537
1003.5000000000;-0.0118064908
1004.0000000000;-0.0120413564
1004.5000000000;-0.0117367385
1005.0000000000;-0.0111116692
1005.5000000000;-0.0110313389
1006.0000000000;-0.0110568749
1006.5000000000;-0.0101698479
1007.0000000000;-0.0100815436
1007.5000000000;-0.0111455172
1008.0000000000;-0.0116786938
1008.5000000000;-0.0113202399
1009.0000000000;-0.0104219560
1009.5000000000;-0.0097025977
1010.0000000000;-0.0099031730
1010.5000000000;-0.0109308362
1011.0000000000;-0.0113991899
1011.5000000000;-0.0110695772
1012.0000000000;-0.0105925864
1012.5000000000;-0.0109680574
1013.0000000000;-0.0117505398
1013.5000000000;-0.0118338950
1014.0000000000;-0.0110145919
1014.5000000000;-0.0103506027
1015.0000000000;-0.0109808240
1015.5000000000;-0.0114314025
1016.0000000000;-0.0113606807
1016.5000000000;-0.0117326314
1017.0000000000;-0.0120258732
1017.5000000000;-0.0119186360
1018.0000000000;-0.0116277663
1018.5000000000;-0.0103894463
1019.0000000000;-0.0088978130
1019.5000000000;-0.0099474527
