182.5000000000;0.9691448808
183.0000000000;1.0535811186
183.5000000000;1.0624468327
184.0000000000;1.0152243376
184.5000000000;1.0173856020
185.0000000000;1.1059699059
185.5000000000;1.2376750708
186.0000000000;1.3074394464
186.5000000000;1.4111263752
187.0000000000;1.7010624409
187.5000000000;1.9514204264
188.0000000000;2.0733580589
188.5000000000;2.1991591454
189.0000000000;2.3465776443
189.5000000000;2.4498338699
190.0000000000;2.5097804070
190.5000000000;2.5244722366
191.0000000000;2.5972006321
191.5000000000;2.8065819740
192.0000000000;2.8940501213
192.5000000000;2.7508330345
193.0000000000;2.7187142372
193.5000000000;2.8013284206
194.0000000000;2.8578562737
194.5000000000;2.8611698151
195.0000000000;2.8438050747
195.5000000000;2.8797020912
196.0000000000;2.9469528198
196.5000000000;2.9359536171
197.0000000000;2.9128384590
197.5000000000;2.9587361813
198.0000000000;3.0183830261
198.5000000000;3.0433075428
199.0000000000;3.0487973690
199.5000000000;3.0608057976
200.0000000000;3.0995650291
200.5000000000;3.1596863270
201.0000000000;3.2155287266
201.5000000000;3.2165863514
202.0000000000;3.1971318722
202.5000000000;3.2319068909
203.0000000000;3.2736556530
203.5000000000;3.2624928951
204.0000000000;3.2570157051
204.5000000000;3.2725203037
205.0000000000;3.2583541870
205.5000000000;3.2345092297
206.0000000000;3.2392489910
206.5000000000;3.2241415977
207.0000000000;3.1770994663
207.5000000000;3.1728930473
208.0000000000;3.1949234009
208.5000000000;3.1645746231
209.0000000000;3.1322946548
209.5000000000;3.1465713978
210.0000000000;3.1570208073
210.5000000000;3.1397268772
211.0000000000;3.1209421158
211.5000000000;3.1125328541
212.0000000000;3.1187329292
212.5000000000;3.1458141804
213.0000000000;3.1765916348
213.5000000000;3.1585237980
214.0000000000;3.1267857552
214.5000000000;3.1464748383
215.0000000000;3.2037920952
215.5000000000;3.2605514526
216.0000000000;3.2687427998
216.5000000000;3.2538695335
217.0000000000;3.2875647545
217.5000000000;3.3227684498
218.0000000000;3.3035099506
218.5000000000;3.3079161644
219.0000000000;3.3527212143
219.5000000000;3.3626418114
220.0000000000;3.3406097889
220.5000000000;3.3292121887
221.0000000000;3.3273215294
221.5000000000;3.3356473446
222.0000000000;3.3720164299
222.5000000000;3.4007506371
223.0000000000;3.3542735577
223.5000000000;3.3143477440
224.0000000000;3.3399569988
224.5000000000;3.3578507900
225.0000000000;3.3337016106
225.5000000000;3.3103246689
226.0000000000;3.2871890068
226.5000000000;3.2598359585
227.0000000000;3.2832324505
227.5000000000;3.3506793976
228.0000000000;3.3072452545
228.5000000000;3.2099041939
229.0000000000;3.1912863255
229.5000000000;3.2133467197
230.0000000000;3.2236890793
230.5000000000;3.2157809734
231.0000000000;3.2099890709
231.5000000000;3.2341837883
232.0000000000;3.2399203777
232.5000000000;3.1904895306
233.0000000000;3.1710832119
233.5000000000;3.1980230808
234.0000000000;3.2041811943
234.5000000000;3.1919090748
235.0000000000;3.2004470825
235.5000000000;3.2403464317
236.0000000000;3.2890942097
236.5000000000;3.2705793381
237.0000000000;3.2239835262
237.5000000000;3.2349390984
238.0000000000;3.2656502724
238.5000000000;3.2669918537
239.0000000000;3.2572081089
239.5000000000;3.2499988079
240.0000000000;3.2449028492
240.5000000000;3.2430999279
241.0000000000;3.2482666969
241.5000000000;3.2688868046
242.0000000000;3.2982165813
242.5000000000;3.3058509827
243.0000000000;3.2913877964
243.5000000000;3.2745456696
244.0000000000;3.2674393654
244.5000000000;3.2649424076
245.0000000000;3.2389249802
245.5000000000;3.2148971558
246.0000000000;3.2437539101
246.5000000000;3.2872483730
247.0000000000;3.2830224037
247.5000000000;3.2426452637
248.0000000000;3.2129223347
248.5000000000;3.2460405827
249.0000000000;3.2937014103
249.5000000000;3.2626390457
250.0000000000;3.2069609165
250.5000000000;3.1757440567
251.0000000000;3.1679813862
251.5000000000;3.1717183590
252.0000000000;3.1662452221
252.5000000000;3.1268846989
253.0000000000;3.0678045750
253.5000000000;3.0567543507
254.0000000000;3.0984368324
254.5000000000;3.1406676769
255.0000000000;3.1481266022
255.5000000000;3.1082754135
256.0000000000;3.0394399166
256.5000000000;2.9892189503
257.0000000000;3.0119359493
257.5000000000;3.0578923225
258.0000000000;3.0358729362
258.5000000000;3.0061242580
259.0000000000;3.0065331459
259.5000000000;2.9960179329
260.0000000000;2.9695861340
260.5000000000;2.9479079247
261.0000000000;2.9350106716
261.5000000000;2.9272379875
262.0000000000;2.9145500660
262.5000000000;2.8794085979
263.0000000000;2.8118927479
263.5000000000;2.7498602867
264.0000000000;2.7080142498
264.5000000000;2.6447615623
265.0000000000;2.5691564083
265.5000000000;2.5226716995
266.0000000000;2.4988715649
266.5000000000;2.4778456688
267.0000000000;2.4462816715
267.5000000000;2.4094390869
268.0000000000;2.3898172379
268.5000000000;2.3813388348
269.0000000000;2.3660323620
269.5000000000;2.3489086628
270.0000000000;2.3372857571
270.5000000000;2.3310854435
271.0000000000;2.3194408417
271.5000000000;2.2893724442
272.0000000000;2.2639839649
272.5000000000;2.2590670586
273.0000000000;2.2471935749
273.5000000000;2.2192645073
274.0000000000;2.1919829845
274.5000000000;2.1695296764
275.0000000000;2.1493706703
275.5000000000;2.1276054382
276.0000000000;2.1028640270
276.5000000000;2.0776278973
277.0000000000;2.0543832779
277.5000000000;2.0347640514
278.0000000000;2.0177402496
278.5000000000;2.0010035038
279.0000000000;1.9813189507
279.5000000000;1.9609496593
280.0000000000;1.9451006651
280.5000000000;1.9271348715
281.0000000000;1.9017869234
281.5000000000;1.8787744045
282.0000000000;1.8600292206
282.5000000000;1.8377071619
283.0000000000;1.8136411905
283.5000000000;1.7925002575
284.0000000000;1.7722027302
284.5000000000;1.7510422468
285.0000000000;1.7295843363
285.5000000000;1.7090671062
286.0000000000;1.6905931234
286.5000000000;1.6724895239
287.0000000000;1.6540967226
287.5000000000;1.6376998425
288.0000000000;1.6231300831
288.5000000000;1.6084740162
289.0000000000;1.5934935808
289.5000000000;1.5791965723
290.0000000000;1.5680732727
290.5000000000;1.5602012873
291.0000000000;1.5530228615
291.5000000000;1.5442267656
292.0000000000;1.5331300497
292.5000000000;1.5234024525
293.0000000000;1.5167418718
293.5000000000;1.5113128424
294.0000000000;1.5054996014
294.5000000000;1.4987601042
295.0000000000;1.4937020540
295.5000000000;1.4906605482
296.0000000000;1.4851788282
296.5000000000;1.4784291983
297.0000000000;1.4750194550
297.5000000000;1.4729989767
298.0000000000;1.4695075750
298.5000000000;1.4646805525
299.0000000000;1.4605113268
299.5000000000;1.4596809149
300.0000000000;1.4597425461
300.5000000000;1.4577057362
301.0000000000;1.4555026293
301.5000000000;1.4545394182
302.0000000000;1.4544000626
302.5000000000;1.4539663792
303.0000000000;1.4524388313
303.5000000000;1.4513955116
304.0000000000;1.4518938065
304.5000000000;1.4532520771
305.0000000000;1.4537646770
305.5000000000;1.4521863461
306.0000000000;1.4525570869
306.5000000000;1.4565303326
307.0000000000;1.4579411745
307.5000000000;1.4566087723
308.0000000000;1.4577059746
308.5000000000;1.4601936340
309.0000000000;1.4615521431
309.5000000000;1.4621000290
310.0000000000;1.4630464315
310.5000000000;1.4657801390
311.0000000000;1.4687888622
311.5000000000;1.4699994326
312.0000000000;1.4708356857
312.5000000000;1.4725699425
313.0000000000;1.4750715494
313.5000000000;1.4773745537
314.0000000000;1.4784641266
314.5000000000;1.4793493748
315.0000000000;1.4813203812
315.5000000000;1.4849767685
316.0000000000;1.4883821011
316.5000000000;1.4884864092
317.0000000000;1.4883490801
317.5000000000;1.4908877611
318.0000000000;1.4933426380
318.5000000000;1.4941146374
319.0000000000;1.4938765764
319.5000000000;1.4942328930
320.0000000000;1.4964169264
320.5000000000;1.4993039370
321.0000000000;1.5011889935
321.5000000000;1.5005924702
322.0000000000;1.4997613430
322.5000000000;1.5016884804
323.0000000000;1.5038566589
323.5000000000;1.5042614937
324.0000000000;1.5040191412
324.5000000000;1.5046091080
325.0000000000;1.5068209171
325.5000000000;1.5077481270
326.0000000000;1.5059385300
326.5000000000;1.5049847364
327.0000000000;1.5055286884
327.5000000000;1.5054794550
328.0000000000;1.5051275492
328.5000000000;1.5051429272
329.0000000000;1.5048060417
329.5000000000;1.5034985542
330.0000000000;1.5013579130
330.5000000000;1.5016208887
331.0000000000;1.5060585737
331.5000000000;1.5076967478
332.0000000000;1.5043030977
332.5000000000;1.5016763210
333.0000000000;1.5005856752
333.5000000000;1.4996960163
334.0000000000;1.5015144348
334.5000000000;1.5049253702
335.0000000000;1.5024899244
335.5000000000;1.4981951714
336.0000000000;1.5009368658
336.5000000000;1.5038721561
337.0000000000;1.5017261505
337.5000000000;1.5009825230
338.0000000000;1.5029419661
338.5000000000;1.5039260387
339.0000000000;1.5026973486
339.5000000000;1.5005474091
340.0000000000;1.5021036863
340.5000000000;1.5068242550
341.0000000000;1.5091770887
341.5000000000;1.5092056990
342.0000000000;1.5095304251
342.5000000000;1.5125520229
343.0000000000;1.5170619488
343.5000000000;1.5182771683
344.0000000000;1.5185739994
344.5000000000;1.5217021704
345.0000000000;1.5224870443
345.5000000000;1.5202382803
346.0000000000;1.5227224827
346.5000000000;1.5284835100
347.0000000000;1.5315312147
347.5000000000;1.5338392258
348.0000000000;1.5374102592
348.5000000000;1.5406692028
349.0000000000;1.5450005531
349.5000000000;1.5529402494
350.0000000000;1.5592671633
350.5000000000;1.5607842207
351.0000000000;1.5641237497
351.5000000000;1.5710546970
352.0000000000;1.5779510736
352.5000000000;1.5829244852
353.0000000000;1.5861659050
353.5000000000;1.5910465717
354.0000000000;1.5983395576
354.5000000000;1.6055182219
355.0000000000;1.6116174459
355.5000000000;1.6169903278
356.0000000000;1.6233298779
356.5000000000;1.6312985420
357.0000000000;1.6397656202
357.5000000000;1.6472493410
358.0000000000;1.6528196335
358.5000000000;1.6581265926
359.0000000000;1.6652469635
359.5000000000;1.6751811504
360.0000000000;1.6852153540
360.5000000000;1.6913024187
361.0000000000;1.7012121677
361.5000000000;1.7183579206
362.0000000000;1.7314506769
362.5000000000;1.7395395041
363.0000000000;1.7517926693
363.5000000000;1.7645351887
364.0000000000;1.7729954720
364.5000000000;1.7816370726
365.0000000000;1.7919149399
365.5000000000;1.8015981913
366.0000000000;1.8120659590
366.5000000000;1.8249288797
367.0000000000;1.8390045166
367.5000000000;1.8525302410
368.0000000000;1.8633265495
368.5000000000;1.8727689981
369.0000000000;1.8836327791
369.5000000000;1.8961534500
370.0000000000;1.9082239866
370.5000000000;1.9157844782
371.0000000000;1.9225996733
371.5000000000;1.9351685047
372.0000000000;1.9501372576
372.5000000000;1.9639651775
373.0000000000;1.9770250320
373.5000000000;1.9887760878
374.0000000000;1.9987227917
374.5000000000;2.0113937855
375.0000000000;2.0279016495
375.5000000000;2.0397229195
376.0000000000;2.0469295979
376.5000000000;2.0570466518
377.0000000000;2.0708270073
377.5000000000;2.0855786800
378.0000000000;2.0976397991
378.5000000000;2.1083664894
379.0000000000;2.1220531464
379.5000000000;2.1322648525
380.0000000000;2.1363406181
380.5000000000;2.1520037651
381.0000000000;2.1799693108
381.5000000000;2.1970734596
382.0000000000;2.1921036243
382.5000000000;2.1730749607
383.0000000000;2.1728007793
383.5000000000;2.1970243454
384.0000000000;2.2157766819
384.5000000000;2.2217698097
385.0000000000;2.2240290642
385.5000000000;2.2264444828
386.0000000000;2.2321734428
386.5000000000;2.2443082333
387.0000000000;2.2561237812
387.5000000000;2.2586181164
388.0000000000;2.2606272697
388.5000000000;2.2644467354
389.0000000000;2.2561531067
389.5000000000;2.2476398945
390.0000000000;2.2602281570
390.5000000000;2.2641060352
391.0000000000;2.2454819679
391.5000000000;2.2473344803
392.0000000000;2.2694976330
392.5000000000;2.2778470516
393.0000000000;2.2687406540
393.5000000000;2.2550687790
394.0000000000;2.2576510906
394.5000000000;2.2731881142
395.0000000000;2.2776660919
395.5000000000;2.2640252113
396.0000000000;2.2443418503
396.5000000000;2.2535555363
397.0000000000;2.2786476612
397.5000000000;2.2621707916
398.0000000000;2.2386703491
398.5000000000;2.2493796349
399.0000000000;2.2635612488
399.5000000000;2.2587571144
400.0000000000;2.2393727303
400.5000000000;2.2283537388
401.0000000000;2.2399239540
401.5000000000;2.2377810478
402.0000000000;2.2130982876
402.5000000000;2.2015371323
403.0000000000;2.2082059383
403.5000000000;2.2193615437
404.0000000000;2.2109277248
404.5000000000;2.1850507259
405.0000000000;2.1758759022
405.5000000000;2.1744160652
406.0000000000;2.1578431129
406.5000000000;2.1443693638
407.0000000000;2.1431887150
407.5000000000;2.1375434399
408.0000000000;2.1268424988
408.5000000000;2.1190748215
409.0000000000;2.1009037495
409.5000000000;2.0714066029
410.0000000000;2.0561523438
410.5000000000;2.0514011383
411.0000000000;2.0371181965
411.5000000000;2.0215992928
412.0000000000;2.0136625767
412.5000000000;2.0067613125
413.0000000000;1.9937611818
413.5000000000;1.9708806276
414.0000000000;1.9492757320
414.5000000000;1.9358009100
415.0000000000;1.9178423882
415.5000000000;1.8969460726
416.0000000000;1.8839632273
416.5000000000;1.8691407442
417.0000000000;1.8448174000
417.5000000000;1.8227746487
418.0000000000;1.8074750900
418.5000000000;1.7944062948
419.0000000000;1.7755447626
419.5000000000;1.7490730286
420.0000000000;1.7286185026
420.5000000000;1.7153261900
421.0000000000;1.6987110376
421.5000000000;1.6803518534
422.0000000000;1.6635349989
422.5000000000;1.6441550255
423.0000000000;1.6226691008
423.5000000000;1.6040450335
424.0000000000;1.5859894753
424.5000000000;1.5644699335
425.0000000000;1.5441325903
425.5000000000;1.5274080038
426.0000000000;1.5082623959
426.5000000000;1.4865700006
427.0000000000;1.4673161507
427.5000000000;1.4504013062
428.0000000000;1.4330838919
428.5000000000;1.4143495560
429.0000000000;1.3951268196
429.5000000000;1.3776315451
430.0000000000;1.3606227636
430.5000000000;1.3423827887
431.0000000000;1.3238160610
431.5000000000;1.3056391478
432.0000000000;1.2880736589
432.5000000000;1.2696031332
433.0000000000;1.2502663136
433.5000000000;1.2339326143
434.0000000000;1.2203339338
434.5000000000;1.2045696974
435.0000000000;1.1863303185
435.5000000000;1.1688742638
436.0000000000;1.1526945829
436.5000000000;1.1374317408
437.0000000000;1.1231167316
437.5000000000;1.1080112457
438.0000000000;1.0915979147
438.5000000000;1.0763965845
439.0000000000;1.0623558760
439.5000000000;1.0475839376
440.0000000000;1.0329271555
440.5000000000;1.0192396641
441.0000000000;1.0057810545
441.5000000000;0.9928943515
442.0000000000;0.9794732332
442.5000000000;0.9652234316
443.0000000000;0.9517729878
443.5000000000;0.9391425252
444.0000000000;0.9268956184
444.5000000000;0.9146133661
445.0000000000;0.9023082256
445.5000000000;0.8901583552
446.0000000000;0.8783897161
446.5000000000;0.8668994904
447.0000000000;0.8549871445
447.5000000000;0.8428010941
448.0000000000;0.8311798573
448.5000000000;0.8205231428
449.0000000000;0.8104215264
449.5000000000;0.7998755574
450.0000000000;0.7890331149
450.5000000000;0.7784256935
451.0000000000;0.7680158615
451.5000000000;0.7577799559
452.0000000000;0.7477379441
452.5000000000;0.7379436493
453.0000000000;0.7283560038
453.5000000000;0.7188182473
454.0000000000;0.7093198895
454.5000000000;0.6999782920
455.0000000000;0.6907830834
455.5000000000;0.6817010045
456.0000000000;0.6729931235
456.5000000000;0.6645549536
457.0000000000;0.6558769345
457.5000000000;0.6472541690
458.0000000000;0.6391845345
458.5000000000;0.6314722300
459.0000000000;0.6235700250
459.5000000000;0.6153125763
460.0000000000;0.6070297956
460.5000000000;0.5989199281
461.0000000000;0.5908768773
461.5000000000;0.5831167698
462.0000000000;0.5757108927
462.5000000000;0.5685067177
463.0000000000;0.5617510080
463.5000000000;0.5549959540
464.0000000000;0.5476751924
464.5000000000;0.5405638814
465.0000000000;0.5339204669
465.5000000000;0.5271903276
466.0000000000;0.5202435851
466.5000000000;0.5132825971
467.0000000000;0.5065462589
467.5000000000;0.5000840425
468.0000000000;0.4938209951
468.5000000000;0.4875335395
469.0000000000;0.4809432030
469.5000000000;0.4743642211
470.0000000000;0.4681123793
470.5000000000;0.4622210264
471.0000000000;0.4565326869
471.5000000000;0.4508529603
472.0000000000;0.4451385140
472.5000000000;0.4394905269
473.0000000000;0.4340988398
473.5000000000;0.4288727939
474.0000000000;0.4234335124
474.5000000000;0.4177188277
475.0000000000;0.4121953845
475.5000000000;0.4071865380
476.0000000000;0.4023991227
476.5000000000;0.3975202143
477.0000000000;0.3925098777
477.5000000000;0.3874564469
478.0000000000;0.3825874925
478.5000000000;0.3778943121
479.0000000000;0.3731454611
479.5000000000;0.3684714437
480.0000000000;0.3640640974
480.5000000000;0.3597703576
481.0000000000;0.3554739654
481.5000000000;0.3511679769
482.0000000000;0.3468441367
482.5000000000;0.3426202238
483.0000000000;0.3386506438
483.5000000000;0.3346940577
484.0000000000;0.3308051229
484.5000000000;0.3275395036
485.0000000000;0.3236439228
485.5000000000;0.3187498152
486.0000000000;0.3161062300
486.5000000000;0.3153112829
487.0000000000;0.3120087087
487.5000000000;0.3059237897
488.0000000000;0.3015094101
488.5000000000;0.2983278632
489.0000000000;0.2946801484
489.5000000000;0.2914547622
490.0000000000;0.2887154818
490.5000000000;0.2855607867
491.0000000000;0.2822432518
491.5000000000;0.2791626751
492.0000000000;0.2760623097
492.5000000000;0.2730925083
493.0000000000;0.2706039548
493.5000000000;0.2680469155
494.0000000000;0.2649164200
494.5000000000;0.2616609037
495.0000000000;0.2586452663
495.5000000000;0.2559038103
496.0000000000;0.2533979118
496.5000000000;0.2510786355
497.0000000000;0.2487778962
497.5000000000;0.2463159561
498.0000000000;0.2437599748
498.5000000000;0.2414724827
499.0000000000;0.2394910455
499.5000000000;0.2372333258
500.0000000000;0.2347115278
500.5000000000;0.2324905396
501.0000000000;0.2305442840
501.5000000000;0.2286421806
502.0000000000;0.2265658677
502.5000000000;0.2243258357
503.0000000000;0.2222054154
503.5000000000;0.2201472372
504.0000000000;0.2180638313
504.5000000000;0.2162160277
505.0000000000;0.2145489156
505.5000000000;0.2127508074
506.0000000000;0.2108901888
506.5000000000;0.2090768963
507.0000000000;0.2072938234
507.5000000000;0.2056003362
508.0000000000;0.2041019946
508.5000000000;0.2024955153
509.0000000000;0.2005840391
509.5000000000;0.1987886727
510.0000000000;0.1972943395
510.5000000000;0.1959530413
511.0000000000;0.1945293844
511.5000000000;0.1929630488
512.0000000000;0.1915176958
512.5000000000;0.1901658922
513.0000000000;0.1887014508
513.5000000000;0.1871479154
514.0000000000;0.1856168061
514.5000000000;0.1842644215
515.0000000000;0.1829869300
515.5000000000;0.1815618575
516.0000000000;0.1801441312
516.5000000000;0.1788641363
517.0000000000;0.1776515394
517.5000000000;0.1764619648
518.0000000000;0.1752738804
518.5000000000;0.1740695685
519.0000000000;0.1728705913
519.5000000000;0.1717420071
520.0000000000;0.1706182957
520.5000000000;0.1693916321
521.0000000000;0.1682084799
521.5000000000;0.1671372205
522.0000000000;0.1659752876
522.5000000000;0.1647890955
523.0000000000;0.1637830734
523.5000000000;0.1627652496
524.0000000000;0.1616257131
524.5000000000;0.1605652869
525.0000000000;0.1596253216
525.5000000000;0.1587193012
526.0000000000;0.1577670872
526.5000000000;0.1567792892
527.0000000000;0.1558795124
527.5000000000;0.1550113559
528.0000000000;0.1540455669
528.5000000000;0.1530186832
529.0000000000;0.1520214379
529.5000000000;0.1511387676
530.0000000000;0.1503424793
530.5000000000;0.1495432109
531.0000000000;0.1486527026
531.5000000000;0.1476871520
532.0000000000;0.1467901617
532.5000000000;0.1459815055
533.0000000000;0.1452195793
533.5000000000;0.1444902271
534.0000000000;0.1437516212
534.5000000000;0.1429387182
535.0000000000;0.1420913339
535.5000000000;0.1412840635
536.0000000000;0.1405099183
536.5000000000;0.1397333294
537.0000000000;0.1389252841
537.5000000000;0.1381433457
538.0000000000;0.1374493539
538.5000000000;0.1367978156
539.0000000000;0.1361238360
539.5000000000;0.1353795230
540.0000000000;0.1346049011
540.5000000000;0.1338550895
541.0000000000;0.1331093460
541.5000000000;0.1323988289
542.0000000000;0.1318045557
542.5000000000;0.1312144548
543.0000000000;0.1304909289
543.5000000000;0.1296927035
544.0000000000;0.1289100796
544.5000000000;0.1282000542
545.0000000000;0.1275724620
545.5000000000;0.1269796193
546.0000000000;0.1262854040
546.5000000000;0.1255343556
547.0000000000;0.1249149665
547.5000000000;0.1244155541
548.0000000000;0.1239335611
548.5000000000;0.1233370230
549.0000000000;0.1226066425
549.5000000000;0.1218439788
550.0000000000;0.1211660802
550.5000000000;0.1205861568
551.0000000000;0.1199387014
551.5000000000;0.1192583889
552.0000000000;0.1187066138
552.5000000000;0.1181516796
553.0000000000;0.1175086275
553.5000000000;0.1169604287
554.0000000000;0.1164766476
554.5000000000;0.1158819124
555.0000000000;0.1152412072
555.5000000000;0.1146560684
556.0000000000;0.1141328812
556.5000000000;0.1135956198
557.0000000000;0.1129741967
557.5000000000;0.1123939753
558.0000000000;0.1118968278
558.5000000000;0.1113303974
559.0000000000;0.1106930003
559.5000000000;0.1100849733
560.0000000000;0.1095511913
560.5000000000;0.1090710685
561.0000000000;0.1085702330
561.5000000000;0.1080512926
562.0000000000;0.1075442582
562.5000000000;0.1070096046
563.0000000000;0.1064338014
563.5000000000;0.1058548540
564.0000000000;0.1053215042
564.5000000000;0.1048555151
565.0000000000;0.1043802276
565.5000000000;0.1038421839
566.0000000000;0.1032528356
566.5000000000;0.1027183533
567.0000000000;0.1023366824
567.5000000000;0.1020534337
568.0000000000;0.1018213704
568.5000000000;0.1016351134
569.0000000000;0.1014234349
569.5000000000;0.1011557281
570.0000000000;0.1009120047
570.5000000000;0.1004975587
571.0000000000;0.0996259078
571.5000000000;0.0989728123
572.0000000000;0.0989160687
572.5000000000;0.0986982584
573.0000000000;0.0982910097
573.5000000000;0.0980771556
574.0000000000;0.0979139879
574.5000000000;0.0976161361
575.0000000000;0.0972631499
575.5000000000;0.0968557894
576.0000000000;0.0962692276
576.5000000000;0.0952954367
577.0000000000;0.0942819118
577.5000000000;0.0943849832
578.0000000000;0.0947451741
578.5000000000;0.0937792137
579.0000000000;0.0921489149
579.5000000000;0.0910696164
580.0000000000;0.0913005024
580.5000000000;0.0920075029
581.0000000000;0.0920845270
581.5000000000;0.0925856084
582.0000000000;0.0933846682
582.5000000000;0.0928604677
583.0000000000;0.0914272144
583.5000000000;0.0905621126
584.0000000000;0.0905840993
584.5000000000;0.0909102261
585.0000000000;0.0906196386
585.5000000000;0.0899309292
586.0000000000;0.0893361419
586.5000000000;0.0887335166
587.0000000000;0.0881794468
587.5000000000;0.0879283175
588.0000000000;0.0878530070
588.5000000000;0.0876699612
589.0000000000;0.0870793238
589.5000000000;0.0861651376
590.0000000000;0.0853904486
590.5000000000;0.0848854706
591.0000000000;0.0845631436
591.5000000000;0.0842539668
592.0000000000;0.0838505775
592.5000000000;0.0833834633
593.0000000000;0.0831377357
593.5000000000;0.0830329806
594.0000000000;0.0824468657
594.5000000000;0.0817208514
595.0000000000;0.0815005079
595.5000000000;0.0811728165
596.0000000000;0.0804130584
596.5000000000;0.0797173083
597.0000000000;0.0792505965
597.5000000000;0.0788690969
598.0000000000;0.0783383474
598.5000000000;0.0776851848
599.0000000000;0.0772376806
599.5000000000;0.0768477097
600.0000000000;0.0763204023
600.5000000000;0.0759894550
601.0000000000;0.0758825839
601.5000000000;0.0756581873
602.0000000000;0.0752141252
602.5000000000;0.0746638551
603.0000000000;0.0743387863
603.5000000000;0.0741831288
604.0000000000;0.0738465711
604.5000000000;0.0732882768
605.0000000000;0.0727064312
605.5000000000;0.0723841339
606.0000000000;0.0722594485
606.5000000000;0.0720983520
607.0000000000;0.0718646273
607.5000000000;0.0716024414
608.0000000000;0.0714008585
608.5000000000;0.0711802617
609.0000000000;0.0708607212
609.5000000000;0.0707552284
610.0000000000;0.0708676130
610.5000000000;0.0707536191
611.0000000000;0.0705088228
611.5000000000;0.0703871623
612.0000000000;0.0702570975
612.5000000000;0.0700898394
613.0000000000;0.0700233579
613.5000000000;0.0699903220
614.0000000000;0.0698784292
614.5000000000;0.0696886480
615.0000000000;0.0695020482
615.5000000000;0.0694224238
616.0000000000;0.0692767203
616.5000000000;0.0689381734
617.0000000000;0.0685919151
617.5000000000;0.0684176907
618.0000000000;0.0684580132
618.5000000000;0.0684415400
619.0000000000;0.0682594031
619.5000000000;0.0681883767
620.0000000000;0.0681651682
620.5000000000;0.0679512993
621.0000000000;0.0675273091
621.5000000000;0.0671277866
622.0000000000;0.0671512634
622.5000000000;0.0672570467
623.0000000000;0.0669847280
623.5000000000;0.0665990636
624.0000000000;0.0662966594
624.5000000000;0.0660411417
625.0000000000;0.0656672120
625.5000000000;0.0651473999
626.0000000000;0.0648745298
626.5000000000;0.0648054630
627.0000000000;0.0645547733
627.5000000000;0.0643124208
628.0000000000;0.0641958416
628.5000000000;0.0638475567
629.0000000000;0.0633776262
629.5000000000;0.0631378964
630.0000000000;0.0629094690
630.5000000000;0.0625109300
631.0000000000;0.0620631278
631.5000000000;0.0617057756
632.0000000000;0.0615124404
632.5000000000;0.0613734350
633.0000000000;0.0611901060
633.5000000000;0.0609333813
634.0000000000;0.0606466942
634.5000000000;0.0603871457
635.0000000000;0.0601593889
635.5000000000;0.0599682853
636.0000000000;0.0598171949
636.5000000000;0.0596575849
637.0000000000;0.0594659671
637.5000000000;0.0593085848
638.0000000000;0.0591377728
638.5000000000;0.0588488318
639.0000000000;0.0585684404
639.5000000000;0.0583970845
640.0000000000;0.0582713373
640.5000000000;0.0581358336
641.0000000000;0.0579611175
641.5000000000;0.0577611513
642.0000000000;0.0575732589
642.5000000000;0.0574428365
643.0000000000;0.0573673658
643.5000000000;0.0573065020
644.0000000000;0.0571850501
644.5000000000;0.0570155084
645.0000000000;0.0568979792
645.5000000000;0.0568375289
646.0000000000;0.0567898974
646.5000000000;0.0566981882
647.0000000000;0.0565714128
647.5000000000;0.0564660020
648.0000000000;0.0563909486
648.5000000000;0.0563355088
649.0000000000;0.0562799759
649.5000000000;0.0561952554
650.0000000000;0.0560620464
650.5000000000;0.0559226722
651.0000000000;0.0558219068
651.5000000000;0.0557790659
652.0000000000;0.0557473078
652.5000000000;0.0556667931
653.0000000000;0.0555375703
653.5000000000;0.0553944223
654.0000000000;0.0553023852
654.5000000000;0.0552848838
655.0000000000;0.0554210097
655.5000000000;0.0557612590
656.0000000000;0.0570876822
656.5000000000;0.0612943731
657.0000000000;0.0651158541
657.5000000000;0.0579777472
658.0000000000;0.0530769341
658.5000000000;0.0541095771
659.0000000000;0.0539565161
659.5000000000;0.0532143004
660.0000000000;0.0530165285
660.5000000000;0.0528494902
661.0000000000;0.0526473336
661.5000000000;0.0525007509
662.0000000000;0.0521823317
662.5000000000;0.0517716594
663.0000000000;0.0516206585
663.5000000000;0.0515604317
664.0000000000;0.0513601601
664.5000000000;0.0510685518
665.0000000000;0.0507636294
665.5000000000;0.0504900590
666.0000000000;0.0501767173
666.5000000000;0.0498175360
667.0000000000;0.0495455563
667.5000000000;0.0493596159
668.0000000000;0.0491792262
668.5000000000;0.0489588082
669.0000000000;0.0487300605
669.5000000000;0.0485822856
670.0000000000;0.0484397262
670.5000000000;0.0482185110
671.0000000000;0.0479909591
671.5000000000;0.0477830693
672.0000000000;0.0475657359
672.5000000000;0.0473536849
673.0000000000;0.0471609905
673.5000000000;0.0469755642
674.0000000000;0.0467930213
674.5000000000;0.0466119349
675.0000000000;0.0464172661
675.5000000000;0.0462254509
676.0000000000;0.0460846461
676.5000000000;0.0459304452
677.0000000000;0.0457015112
677.5000000000;0.0454997420
678.0000000000;0.0453614332
678.5000000000;0.0452331565
679.0000000000;0.0450973473
679.5000000000;0.0449680053
680.0000000000;0.0448796079
680.5000000000;0.0447675474
681.0000000000;0.0445508249
681.5000000000;0.0443946831
682.0000000000;0.0443541519
682.5000000000;0.0442452431
683.0000000000;0.0440639183
683.5000000000;0.0439073071
684.0000000000;0.0438327044
684.5000000000;0.0438876674
685.0000000000;0.0440760478
685.5000000000;0.0441221930
686.0000000000;0.0438549630
686.5000000000;0.0435687788
687.0000000000;0.0434294082
687.5000000000;0.0434100069
688.0000000000;0.0433480926
688.5000000000;0.0431875959
689.0000000000;0.0430902056
689.5000000000;0.0430915877
690.0000000000;0.0431315042
690.5000000000;0.0431276411
691.0000000000;0.0430792719
691.5000000000;0.0430655032
692.0000000000;0.0430265181
692.5000000000;0.0429114178
693.0000000000;0.0428268835
693.5000000000;0.0427570827
694.0000000000;0.0426004045
694.5000000000;0.0424502194
695.0000000000;0.0423671082
695.5000000000;0.0422582850
696.0000000000;0.0421225466
696.5000000000;0.0420239531
697.0000000000;0.0420092009
697.5000000000;0.0419964828
698.0000000000;0.0417967737
698.5000000000;0.0415269919
699.0000000000;0.0413477235
699.5000000000;0.0411763825
700.0000000000;0.0410083085
700.5000000000;0.0409042314
701.0000000000;0.0407512225
701.5000000000;0.0405144468
702.0000000000;0.0403687470
702.5000000000;0.0402920358
703.0000000000;0.0401476547
703.5000000000;0.0398838259
704.0000000000;0.0395924002
704.5000000000;0.0394683816
705.0000000000;0.0393807739
705.5000000000;0.0391842946
706.0000000000;0.0390433855
706.5000000000;0.0389895998
707.0000000000;0.0389122516
707.5000000000;0.0387601405
708.0000000000;0.0385280177
708.5000000000;0.0382566601
709.0000000000;0.0379787423
709.5000000000;0.0377183184
710.0000000000;0.0375120044
710.5000000000;0.0373420492
711.0000000000;0.0371335037
711.5000000000;0.0369159542
712.0000000000;0.0367530398
712.5000000000;0.0366678238
713.0000000000;0.0365846194
713.5000000000;0.0363948792
714.0000000000;0.0361813121
714.5000000000;0.0360056274
715.0000000000;0.0358205512
715.5000000000;0.0356226787
716.0000000000;0.0354193114
716.5000000000;0.0351751186
717.0000000000;0.0349010602
717.5000000000;0.0346569829
718.0000000000;0.0344540514
718.5000000000;0.0342778526
719.0000000000;0.0341042951
719.5000000000;0.0338877216
720.0000000000;0.0336005278
720.5000000000;0.0333665609
721.0000000000;0.0332235917
721.5000000000;0.0330398306
722.0000000000;0.0328161158
722.5000000000;0.0326098464
723.0000000000;0.0324265137
723.5000000000;0.0322800428
724.0000000000;0.0321795270
724.5000000000;0.0320382379
725.0000000000;0.0318564624
725.5000000000;0.0318305269
726.0000000000;0.0318608247
726.5000000000;0.0317214057
727.0000000000;0.0314978287
727.5000000000;0.0312829167
728.0000000000;0.0310828239
728.5000000000;0.0309161451
729.0000000000;0.0307835825
729.5000000000;0.0306258835
730.0000000000;0.0304873660
730.5000000000;0.0304749142
731.0000000000;0.0305067077
731.5000000000;0.0304615889
732.0000000000;0.0302636214
732.5000000000;0.0299995560
733.0000000000;0.0298185349
733.5000000000;0.0297532752
734.0000000000;0.0297663864
734.5000000000;0.0297796223
735.0000000000;0.0297730379
735.5000000000;0.0297228936
736.0000000000;0.0295593292
736.5000000000;0.0293659549
737.0000000000;0.0292849671
737.5000000000;0.0291962251
738.0000000000;0.0290097669
738.5000000000;0.0287883487
739.0000000000;0.0286873337
739.5000000000;0.0287883189
740.0000000000;0.0289038606
740.5000000000;0.0288832150
741.0000000000;0.0286876578
741.5000000000;0.0285140108
742.0000000000;0.0284701437
742.5000000000;0.0283884071
743.0000000000;0.0282679778
743.5000000000;0.0282010380
744.0000000000;0.0281823054
744.5000000000;0.0281645730
745.0000000000;0.0280920919
745.5000000000;0.0280099697
746.0000000000;0.0279619507
746.5000000000;0.0279064886
747.0000000000;0.0278830118
747.5000000000;0.0279399250
748.0000000000;0.0278933141
748.5000000000;0.0277252775
749.0000000000;0.0276811495
749.5000000000;0.0276461784
750.0000000000;0.0274984166
750.5000000000;0.0275390837
751.0000000000;0.0276472103
751.5000000000;0.0274116676
752.0000000000;0.0271579325
752.5000000000;0.0271571651
753.0000000000;0.0272157304
753.5000000000;0.0272655971
754.0000000000;0.0272854026
754.5000000000;0.0270983577
755.0000000000;0.0267911050
755.5000000000;0.0267027318
756.0000000000;0.0267878715
756.5000000000;0.0268909596
757.0000000000;0.0269386191
757.5000000000;0.0269165803
758.0000000000;0.0268426389
758.5000000000;0.0267296601
759.0000000000;0.0265828930
759.5000000000;0.0264011063
760.0000000000;0.0261843577
760.5000000000;0.0259684455
761.0000000000;0.0258630533
761.5000000000;0.0257285889
762.0000000000;0.0253453124
762.5000000000;0.0250642709
763.0000000000;0.0250899084
763.5000000000;0.0251847524
764.0000000000;0.0251290649
764.5000000000;0.0248691514
765.0000000000;0.0247045122
765.5000000000;0.0246018246
766.0000000000;0.0242714081
766.5000000000;0.0238668248
767.0000000000;0.0236005057
767.5000000000;0.0235412791
768.0000000000;0.0236441344
768.5000000000;0.0237910412
769.0000000000;0.0238338280
769.5000000000;0.0236802176
770.0000000000;0.0233253818
770.5000000000;0.0229599737
771.0000000000;0.0227391329
771.5000000000;0.0225953087
772.0000000000;0.0223968551
772.5000000000;0.0220771786
773.0000000000;0.0218412485
773.5000000000;0.0217687991
774.0000000000;0.0217333063
774.5000000000;0.0215388685
775.0000000000;0.0211651549
775.5000000000;0.0209683329
776.0000000000;0.0209474713
776.5000000000;0.0208751988
777.0000000000;0.0207474381
777.5000000000;0.0206144769
778.0000000000;0.0205194894
778.5000000000;0.0204457771
779.0000000000;0.0203906670
779.5000000000;0.0204259399
780.0000000000;0.0204295963
780.5000000000;0.0202216618
781.0000000000;0.0200204216
781.5000000000;0.0199478827
782.0000000000;0.0198686458
782.5000000000;0.0197970252
783.0000000000;0.0197602380
783.5000000000;0.0196325425
784.0000000000;0.0193899460
784.5000000000;0.0191218387
785.0000000000;0.0189742260
785.5000000000;0.0189571399
786.0000000000;0.0188772362
786.5000000000;0.0187164787
787.0000000000;0.0185539387
787.5000000000;0.0184595473
788.0000000000;0.0184356458
788.5000000000;0.0184289161
789.0000000000;0.0183886439
789.5000000000;0.0183039345
790.0000000000;0.0182185322
790.5000000000;0.0181410741
791.0000000000;0.0180525165
791.5000000000;0.0179207809
792.0000000000;0.0177708771
792.5000000000;0.0176627096
793.0000000000;0.0175532699
793.5000000000;0.0174944606
794.0000000000;0.0176852569
794.5000000000;0.0178633649
795.0000000000;0.0177047662
795.5000000000;0.0174148250
796.0000000000;0.0171750654
796.5000000000;0.0170450378
797.0000000000;0.0170050040
797.5000000000;0.0170228034
798.0000000000;0.0170829967
798.5000000000;0.0171071533
799.0000000000;0.0170267317
799.5000000000;0.0169103649
800.0000000000;0.0168416295
800.5000000000;0.0168632120
801.0000000000;0.0168532468
801.5000000000;0.0167537276
802.0000000000;0.0166805405
802.5000000000;0.0166050084
803.0000000000;0.0164609682
803.5000000000;0.0163356680
804.0000000000;0.0162920095
804.5000000000;0.0163231082
805.0000000000;0.0163062494
805.5000000000;0.0162370577
806.0000000000;0.0163288228
806.5000000000;0.0164488424
807.0000000000;0.0163672678
807.5000000000;0.0161728673
808.0000000000;0.0160624646
808.5000000000;0.0161836855
809.0000000000;0.0162019264
809.5000000000;0.0159498062
810.0000000000;0.0157624986
810.5000000000;0.0157797504
811.0000000000;0.0159219224
811.5000000000;0.0159134679
812.0000000000;0.0157243032
812.5000000000;0.0155666107
813.0000000000;0.0155455293
813.5000000000;0.0156490132
814.0000000000;0.0157434512
814.5000000000;0.0157003328
815.0000000000;0.0155067043
815.5000000000;0.0154352775
816.0000000000;0.0155018186
816.5000000000;0.0154894833
817.0000000000;0.0153992632
817.5000000000;0.0152938534
818.0000000000;0.0152161056
818.5000000000;0.0151178725
819.0000000000;0.0149812065
819.5000000000;0.0149764465
820.0000000000;0.0151155014
820.5000000000;0.0152490716
821.0000000000;0.0152547481
821.5000000000;0.0151335169
822.0000000000;0.0150304371
822.5000000000;0.0149495862
823.0000000000;0.0148693146
823.5000000000;0.0148793422
824.0000000000;0.0148986345
824.5000000000;0.0147791440
825.0000000000;0.0147279091
825.5000000000;0.0147877662
826.0000000000;0.0147112869
826.5000000000;0.0146476785
827.0000000000;0.0147416964
827.5000000000;0.0147204818
828.0000000000;0.0145610431
828.5000000000;0.0144400997
829.0000000000;0.0144179296
829.5000000000;0.0144255888
830.0000000000;0.0143097639
830.5000000000;0.0141864419
831.0000000000;0.0141635817
831.5000000000;0.0141121531
832.0000000000;0.0140892444
832.5000000000;0.0142078791
833.0000000000;0.0142664155
833.5000000000;0.0141584100
834.0000000000;0.0139948577
834.5000000000;0.0140776159
835.0000000000;0.0143893752
835.5000000000;0.0142946523
836.0000000000;0.0140170902
836.5000000000;0.0140590556
837.0000000000;0.0139950700
837.5000000000;0.0137728425
838.0000000000;0.0137857087
838.5000000000;0.0138444174
839.0000000000;0.0137781706
839.5000000000;0.0137564056
840.0000000000;0.0138295051
840.5000000000;0.0139360242
841.0000000000;0.0139436033
841.5000000000;0.0138690164
842.0000000000;0.0138416924
842.5000000000;0.0138492733
843.0000000000;0.0138220536
843.5000000000;0.0136919254
844.0000000000;0.0135730403
844.5000000000;0.0135715697
845.0000000000;0.0135837048
845.5000000000;0.0135929259
846.0000000000;0.0136289634
846.5000000000;0.0135582145
847.0000000000;0.0134122828
847.5000000000;0.0134288268
848.0000000000;0.0135208759
848.5000000000;0.0135443239
849.0000000000;0.0135176741
849.5000000000;0.0134914527
850.0000000000;0.0135015724
850.5000000000;0.0135112414
851.0000000000;0.0135135632
851.5000000000;0.0135324951
852.0000000000;0.0135101303
852.5000000000;0.0135444654
853.0000000000;0.0139487777
853.5000000000;0.0142633589
854.0000000000;0.0140223224
854.5000000000;0.0139045352
855.0000000000;0.0140125677
855.5000000000;0.0138872704
856.0000000000;0.0137219699
856.5000000000;0.0137004927
857.0000000000;0.0137261543
857.5000000000;0.0137587283
858.0000000000;0.0137713663
858.5000000000;0.0137022426
859.0000000000;0.0136859333
859.5000000000;0.0138640562
860.0000000000;0.0138830254
860.5000000000;0.0136918118
861.0000000000;0.0136492653
861.5000000000;0.0136805680
862.0000000000;0.0136571266
862.5000000000;0.0136605231
863.0000000000;0.0137027539
863.5000000000;0.0137395058
864.0000000000;0.0137282982
864.5000000000;0.0136763509
865.0000000000;0.0136385290
865.5000000000;0.0136699462
866.0000000000;0.0137357367
866.5000000000;0.0136997383
867.0000000000;0.0136450874
867.5000000000;0.0137000317
868.0000000000;0.0138393501
868.5000000000;0.0139093604
869.0000000000;0.0137604838
869.5000000000;0.0135575226
870.0000000000;0.0134906797
870.5000000000;0.0136407772
871.0000000000;0.0137991598
871.5000000000;0.0137980487
872.0000000000;0.0137339318
872.5000000000;0.0136942724
873.0000000000;0.0137124714
873.5000000000;0.0137376273
874.0000000000;0.0137744006
874.5000000000;0.0138485972
875.0000000000;0.0137944687
875.5000000000;0.0135998251
876.0000000000;0.0135172606
876.5000000000;0.0135743562
877.0000000000;0.0136511801
877.5000000000;0.0135795660
878.0000000000;0.0134705584
878.5000000000;0.0135514252
879.0000000000;0.0137521503
879.5000000000;0.0138473092
880.0000000000;0.0136174504
880.5000000000;0.0134173278
881.0000000000;0.0134355677
881.5000000000;0.0132959876
882.0000000000;0.0131825097
882.5000000000;0.0133454055
883.0000000000;0.0133707374
883.5000000000;0.0132527100
884.0000000000;0.0132839028
884.5000000000;0.0132929161
885.0000000000;0.0132124210
885.5000000000;0.0132141383
886.0000000000;0.0131959058
886.5000000000;0.0131176440
887.0000000000;0.0132364826
887.5000000000;0.0133988429
888.0000000000;0.0133260647
888.5000000000;0.0131687047
889.0000000000;0.0131181395
889.5000000000;0.0132548157
890.0000000000;0.0133211277
890.5000000000;0.0131761581
891.0000000000;0.0129805300
891.5000000000;0.0129682785
892.0000000000;0.0131648527
892.5000000000;0.0131554827
893.0000000000;0.0129577229
893.5000000000;0.0128431926
894.0000000000;0.0128152836
894.5000000000;0.0128198145
895.0000000000;0.0128113283
895.5000000000;0.0127977543
896.0000000000;0.0128041850
896.5000000000;0.0128351664
897.0000000000;0.0127200847
897.5000000000;0.0124649284
898.0000000000;0.0126116313
898.5000000000;0.0129206413
899.0000000000;0.0128181810
899.5000000000;0.0127091175
900.0000000000;0.0126866875
900.5000000000;0.0124039222
901.0000000000;0.0122123705
901.5000000000;0.0123182936
902.0000000000;0.0123572592
902.5000000000;0.0122995032
903.0000000000;0.0122778825
903.5000000000;0.0123410486
904.0000000000;0.0124448510
904.5000000000;0.0125064747
905.0000000000;0.0125172017
905.5000000000;0.0124287112
906.0000000000;0.0121866940
906.5000000000;0.0120492056
907.0000000000;0.0120783113
907.5000000000;0.0119122975
908.0000000000;0.0117999967
908.5000000000;0.0120076938
909.0000000000;0.0120542562
909.5000000000;0.0118330698
910.0000000000;0.0116110118
910.5000000000;0.0116158295
911.0000000000;0.0117845805
911.5000000000;0.0117971674
912.0000000000;0.0116238678
912.5000000000;0.0114204045
913.0000000000;0.0114341285
913.5000000000;0.0115952529
914.0000000000;0.0116747757
914.5000000000;0.0115082432
915.0000000000;0.0113835800
915.5000000000;0.0116580911
916.0000000000;0.0117980801
916.5000000000;0.0116239572
917.0000000000;0.0114968624
917.5000000000;0.0114619732
918.0000000000;0.0114258043
918.5000000000;0.0112767685
919.0000000000;0.0110652829
919.5000000000;0.0108996909
920.0000000000;0.0108093591
920.5000000000;0.0107080238
921.0000000000;0.0105446614
921.5000000000;0.0106228022
922.0000000000;0.0108826254
922.5000000000;0.0109049836
923.0000000000;0.0107690208
923.5000000000;0.0105862496
924.0000000000;0.0103161810
924.5000000000;0.0101955375
925.0000000000;0.0103533017
925.5000000000;0.0104356036
926.0000000000;0.0103680920
926.5000000000;0.0102937687
927.0000000000;0.0103058293
927.5000000000;0.0102773281
928.0000000000;0.0100102751
928.5000000000;0.0098944400
929.0000000000;0.0100472886
929.5000000000;0.0100467056
930.0000000000;0.0099076089
930.5000000000;0.0097704446
931.0000000000;0.0096494444
931.5000000000;0.0097348215
932.0000000000;0.0100580100
932.5000000000;0.0099540194
933.0000000000;0.0095516052
933.5000000000;0.0095015233
934.0000000000;0.0094129993
934.5000000000;0.0093214270
935.0000000000;0.0098227328
935.5000000000;0.0099346992
936.0000000000;0.0091842599
936.5000000000;0.0088271061
937.0000000000;0.0089473492
937.5000000000;0.0090763345
938.0000000000;0.0091275480
938.5000000000;0.0091761276
939.0000000000;0.0092641907
939.5000000000;0.0090735406
940.0000000000;0.0086726528
940.5000000000;0.0085267927
941.0000000000;0.0086856438
941.5000000000;0.0088501191
942.0000000000;0.0085512018
942.5000000000;0.0083012236
943.0000000000;0.0085131684
943.5000000000;0.0085718520
944.0000000000;0.0084165120
944.5000000000;0.0082788104
945.0000000000;0.0080498261
945.5000000000;0.0078472011
946.0000000000;0.0078808609
946.5000000000;0.0077535235
947.0000000000;0.0075143324
947.5000000000;0.0077097910
948.0000000000;0.0076522501
948.5000000000;0.0071494998
949.0000000000;0.0073566763
949.5000000000;0.0077351863
950.0000000000;0.0074489606
950.5000000000;0.0070652603
951.0000000000;0.0070358803
951.5000000000;0.0073245862
952.0000000000;0.0070946650
952.5000000000;0.0064395503
953.0000000000;0.0062485905
953.5000000000;0.0062952465
954.0000000000;0.0061535523
954.5000000000;0.0057088924
955.0000000000;0.0057525910
955.5000000000;0.0063840100
956.0000000000;0.0060849832
956.5000000000;0.0053516645
957.0000000000;0.0052828044
957.5000000000;0.0055148900
958.0000000000;0.0053416933
958.5000000000;0.0044972235
959.0000000000;0.0044234525
959.5000000000;0.0051526912
960.0000000000;0.0052842116
960.5000000000;0.0049510985
961.0000000000;0.0045877309
961.5000000000;0.0043650381
962.0000000000;0.0041789655
962.5000000000;0.0041160481
963.0000000000;0.0046422244
963.5000000000;0.0048698764
964.0000000000;0.0040631429
964.5000000000;0.0036370698
965.0000000000;0.0037202493
965.5000000000;0.0036003243
966.0000000000;0.0036920495
966.5000000000;0.0038792898
967.0000000000;0.0035874513
967.5000000000;0.0036183635
968.0000000000;0.0040705344
968.5000000000;0.0038518189
969.0000000000;0.0035202915
969.5000000000;0.0036987732
970.0000000000;0.0039440212
970.5000000000;0.0039690947
971.0000000000;0.0037791696
971.5000000000;0.0036999877
972.0000000000;0.0036023969
972.5000000000;0.0032395863
973.0000000000;0.0030945230
973.5000000000;0.0032950311
974.0000000000;0.0034804682
974.5000000000;0.0032281999
975.0000000000;0.0027315421
975.5000000000;0.0027651442
976.0000000000;0.0029788499
976.5000000000;0.0028749655
977.0000000000;0.0025248132
977.5000000000;0.0028616050
978.0000000000;0.0039408556
978.5000000000;0.0034539134
979.0000000000;0.0025294886
979.5000000000;0.0032706715
980.0000000000;0.0037714262
980.5000000000;0.0032523475
981.0000000000;0.0025488436
981.5000000000;0.0026646501
982.0000000000;0.0033175582
982.5000000000;0.0031564871
983.0000000000;0.0026940876
983.5000000000;0.0025476497
984.0000000000;0.0025882870
984.5000000000;0.0025332500
985.0000000000;0.0022191135
985.5000000000;0.0018180081
986.0000000000;0.0017960273
986.5000000000;0.0021839479
987.0000000000;0.0018049038
987.5000000000;0.0015115855
988.0000000000;0.0025267501
988.5000000000;0.0023724930
989.0000000000;0.0014389406
989.5000000000;0.0023396157
990.0000000000;0.0029529242
990.5000000000;0.0022387183
991.0000000000;0.0017262324
991.5000000000;0.0017675230
992.0000000000;0.0022290249
992.5000000000;0.0028457488
993.0000000000;0.0026069947
993.5000000000;0.0013999020
994.0000000000;0.0012463138
994.5000000000;0.0017216076
995.0000000000;0.0015536809
995.5000000000;0.0013299913
996.0000000000;0.0017714917
996.5000000000;0.0028901927
997.0000000000;0.0028718642
997.5000000000;0.0015861829
998.0000000000;0.0006502720
998.5000000000;0.0008440966
999.0000000000;0.0016197455
999.5000000000;0.0015163464
1000.0000000000;0.0012477400
1000.5000000000;0.0015097264
1001.0000000000;0.0017831916
1001.5000000000;0.0014945673
1002.0000000000;0.0007585274
1002.5000000000;0.0007410304
1003.0000000000;0.0004540875
1003.5000000000;-0.0009167290
1004.0000000000;-0.0008380043
1004.5000000000;0.0004691627
1005.0000000000;0.0010677736
1005.5000000000;0.0010102119
1006.0000000000;0.0008829868
1006.5000000000;0.0011761381
1007.0000000000;0.0014995462
1007.5000000000;0.0013506488
1008.0000000000;0.0005935938
1008.5000000000;0.0003171736
1009.0000000000;0.0009347389
1009.5000000000;0.0014538065
1010.0000000000;0.0012723773
1010.5000000000;0.0005886086
1011.0000000000;0.0004807616
1011.5000000000;0.0007477668
1012.0000000000;0.0007115413
1012.5000000000;0.0002413034
1013.0000000000;-0.0002718203
1013.5000000000;-0.0002215790
1014.0000000000;0.0006735500
1014.5000000000;0.0011783713
1015.0000000000;-0.0001090222
1015.5000000000;-0.0013028223
1016.0000000000;-0.0012748461
1016.5000000000;-0.0005883328
1017.0000000000;-0.0008366808
1017.5000000000;-0.0016331155
1018.0000000000;-0.0006110335
1018.5000000000;0.0010252884
1019.0000000000;0.0015841634
1019.5000000000;0.0006654768
