182.5000000000;10.8124198914
183.0000000000;11.1375551224
183.5000000000;10.7781267166
184.0000000000;9.9505987167
184.5000000000;9.3935413361
185.0000000000;8.1186809540
185.5000000000;6.0540809631
186.0000000000;4.9797925949
186.5000000000;3.7719101906
187.0000000000;1.8719990253
187.5000000000;1.0870664120
188.0000000000;0.9628262520
188.5000000000;0.7728396654
189.0000000000;0.4887450635
189.5000000000;0.3554530144
190.0000000000;0.3168926537
190.5000000000;0.3055413365
191.0000000000;0.2716024816
191.5000000000;0.2086831331
192.0000000000;0.1714182049
192.5000000000;0.1668053269
193.0000000000;0.1709167063
193.5000000000;0.1666099429
194.0000000000;0.1505464315
194.5000000000;0.1399587095
195.0000000000;0.1432808787
195.5000000000;0.1387701631
196.0000000000;0.1242634580
196.5000000000;0.1153986007
197.0000000000;0.1174057871
197.5000000000;0.1264187992
198.0000000000;0.1236560270
198.5000000000;0.1075397432
199.0000000000;0.0967322737
199.5000000000;0.0923490450
200.0000000000;0.0872073248
200.5000000000;0.0795971006
201.0000000000;0.0715061948
201.5000000000;0.0680894107
202.0000000000;0.0668864474
202.5000000000;0.0616606101
203.0000000000;0.0572952516
203.5000000000;0.0585165769
204.0000000000;0.0603320859
204.5000000000;0.0603057593
205.0000000000;0.0604545586
205.5000000000;0.0606072508
206.0000000000;0.0597008131
206.5000000000;0.0589672104
207.0000000000;0.0597258583
207.5000000000;0.0622369871
208.0000000000;0.0662105083
208.5000000000;0.0702622607
209.0000000000;0.0690109432
209.5000000000;0.0618459508
210.0000000000;0.0635258332
210.5000000000;0.0733336434
211.0000000000;0.0730194151
211.5000000000;0.0686957017
212.0000000000;0.0726785585
212.5000000000;0.0745958686
213.0000000000;0.0700535104
213.5000000000;0.0693246275
214.0000000000;0.0718105584
214.5000000000;0.0707483664
215.0000000000;0.0671481416
215.5000000000;0.0641467199
216.0000000000;0.0643633753
216.5000000000;0.0646209791
217.0000000000;0.0587907881
217.5000000000;0.0524147265
218.0000000000;0.0514146052
218.5000000000;0.0515690036
219.0000000000;0.0495594293
219.5000000000;0.0453071296
220.0000000000;0.0429534912
220.5000000000;0.0458525345
221.0000000000;0.0463166274
221.5000000000;0.0419302881
222.0000000000;0.0427101254
222.5000000000;0.0472892560
223.0000000000;0.0463359542
223.5000000000;0.0433231667
224.0000000000;0.0439892001
224.5000000000;0.0474275164
225.0000000000;0.0517270751
225.5000000000;0.0549810976
226.0000000000;0.0555318780
226.5000000000;0.0530908220
227.0000000000;0.0519096218
227.5000000000;0.0539798439
228.0000000000;0.0559656993
228.5000000000;0.0561582409
229.0000000000;0.0549934432
229.5000000000;0.0556259751
230.0000000000;0.0592810102
230.5000000000;0.0614855848
231.0000000000;0.0628096089
231.5000000000;0.0676681772
232.0000000000;0.0689709112
232.5000000000;0.0618358999
233.0000000000;0.0609194785
233.5000000000;0.0682226121
234.0000000000;0.0678515285
234.5000000000;0.0614812300
235.0000000000;0.0587157011
235.5000000000;0.0595736839
236.0000000000;0.0605648421
236.5000000000;0.0569478944
237.0000000000;0.0531331301
237.5000000000;0.0572328195
238.0000000000;0.0618412308
238.5000000000;0.0598604716
239.0000000000;0.0554128662
239.5000000000;0.0532670952
240.0000000000;0.0563193075
240.5000000000;0.0595041290
241.0000000000;0.0575596653
241.5000000000;0.0546366684
242.0000000000;0.0532537624
242.5000000000;0.0519184284
243.0000000000;0.0523102060
243.5000000000;0.0565755516
244.0000000000;0.0599485748
244.5000000000;0.0601211749
245.0000000000;0.0622574873
245.5000000000;0.0666528046
246.0000000000;0.0694508627
246.5000000000;0.0708426163
247.0000000000;0.0724572241
247.5000000000;0.0754196197
248.0000000000;0.0787698776
248.5000000000;0.0797493160
249.0000000000;0.0816261768
249.5000000000;0.0878787562
250.0000000000;0.0898441449
250.5000000000;0.0851276964
251.0000000000;0.0858277231
251.5000000000;0.0929521769
252.0000000000;0.0990857109
252.5000000000;0.1026741266
253.0000000000;0.1046326905
253.5000000000;0.1069296226
254.0000000000;0.1095063239
254.5000000000;0.1106093302
255.0000000000;0.1118708104
255.5000000000;0.1146274805
256.0000000000;0.1150845513
256.5000000000;0.1138295084
257.0000000000;0.1175072193
257.5000000000;0.1260070801
258.0000000000;0.1340877712
258.5000000000;0.1329559535
259.0000000000;0.1243344247
259.5000000000;0.1265262812
260.0000000000;0.1335797161
260.5000000000;0.1279152036
261.0000000000;0.1284110844
261.5000000000;0.1458036155
262.0000000000;0.1514730155
262.5000000000;0.1451783776
263.0000000000;0.1520563066
263.5000000000;0.1593735218
264.0000000000;0.1515836567
264.5000000000;0.1482456177
265.0000000000;0.1573824883
265.5000000000;0.1665073484
266.0000000000;0.1638344824
266.5000000000;0.1466852278
267.0000000000;0.1404771358
267.5000000000;0.1534299850
268.0000000000;0.1597284377
268.5000000000;0.1515659392
269.0000000000;0.1376565248
269.5000000000;0.1364693940
270.0000000000;0.1514771730
270.5000000000;0.1523956805
271.0000000000;0.1396868974
271.5000000000;0.1400261819
272.0000000000;0.1460001767
272.5000000000;0.1441023797
273.0000000000;0.1427426189
273.5000000000;0.1458626240
274.0000000000;0.1481966376
274.5000000000;0.1494409740
275.0000000000;0.1519090533
275.5000000000;0.1563088447
276.0000000000;0.1626293063
276.5000000000;0.1701511741
277.0000000000;0.1763848960
277.5000000000;0.1782510579
278.0000000000;0.1764505655
278.5000000000;0.1754259765
279.0000000000;0.1845215112
279.5000000000;0.2018558383
280.0000000000;0.2147414386
280.5000000000;0.2190362960
281.0000000000;0.2170905024
281.5000000000;0.2184924930
282.0000000000;0.2303000093
282.5000000000;0.2531638145
283.0000000000;0.2754962444
283.5000000000;0.2839806676
284.0000000000;0.2852230966
284.5000000000;0.2890923917
285.0000000000;0.3021961749
285.5000000000;0.3225206733
286.0000000000;0.3414653540
286.5000000000;0.3497178853
287.0000000000;0.3507686853
287.5000000000;0.3724516928
288.0000000000;0.4051738977
288.5000000000;0.4101695716
289.0000000000;0.4027718902
289.5000000000;0.4089118838
290.0000000000;0.4235953689
290.5000000000;0.4389916956
291.0000000000;0.4499955773
291.5000000000;0.4546300173
292.0000000000;0.4559900165
292.5000000000;0.4683336318
293.0000000000;0.4884564579
293.5000000000;0.4883087277
294.0000000000;0.4793480337
294.5000000000;0.4897331893
295.0000000000;0.5045034885
295.5000000000;0.5118167996
296.0000000000;0.5247481465
296.5000000000;0.5388166904
297.0000000000;0.5385277271
297.5000000000;0.5363992453
298.0000000000;0.5455466509
298.5000000000;0.5584180355
299.0000000000;0.5691117048
299.5000000000;0.5754231811
300.0000000000;0.5694101453
300.5000000000;0.5523149371
301.0000000000;0.5588338971
301.5000000000;0.5899528265
302.0000000000;0.6017773747
302.5000000000;0.5977420807
303.0000000000;0.6026561260
303.5000000000;0.6157198548
304.0000000000;0.6302838922
304.5000000000;0.6406436563
305.0000000000;0.6486886144
305.5000000000;0.6599317193
306.0000000000;0.6712186337
306.5000000000;0.6792916656
307.0000000000;0.6863165498
307.5000000000;0.6958531737
308.0000000000;0.7116333842
308.5000000000;0.7345786691
309.0000000000;0.7611603737
309.5000000000;0.7792232037
310.0000000000;0.7888416052
310.5000000000;0.8040617704
311.0000000000;0.8238357306
311.5000000000;0.8422980905
312.0000000000;0.8653522134
312.5000000000;0.8944051266
313.0000000000;0.9216645956
313.5000000000;0.9494150281
314.0000000000;0.9841743112
314.5000000000;1.0199704170
315.0000000000;1.0517599583
315.5000000000;1.0830390453
316.0000000000;1.1191221476
316.5000000000;1.1636790037
317.0000000000;1.2064726353
317.5000000000;1.2411445379
318.0000000000;1.2820051908
318.5000000000;1.3324344158
319.0000000000;1.3820087910
319.5000000000;1.4262801409
320.0000000000;1.4673664570
320.5000000000;1.5177987814
321.0000000000;1.5797374249
321.5000000000;1.6400104761
322.0000000000;1.6938996315
322.5000000000;1.7439349890
323.0000000000;1.7990936041
323.5000000000;1.8641321659
324.0000000000;1.9343588352
324.5000000000;2.0016152859
325.0000000000;2.0596990585
325.5000000000;2.1227953434
326.0000000000;2.1968147755
326.5000000000;2.2598710060
327.0000000000;2.3152773380
327.5000000000;2.3863103390
328.0000000000;2.4631295204
328.5000000000;2.5320744514
329.0000000000;2.6025722027
329.5000000000;2.6754128933
330.0000000000;2.7401866913
330.5000000000;2.8070595264
331.0000000000;2.8853683472
331.5000000000;2.9505906105
332.0000000000;2.9986553192
332.5000000000;3.0585484505
333.0000000000;3.1365611553
333.5000000000;3.2232897282
334.0000000000;3.3048086166
334.5000000000;3.3735258579
335.0000000000;3.4335243702
335.5000000000;3.4892675877
336.0000000000;3.5448451042
336.5000000000;3.6060836315
337.0000000000;3.6762316227
337.5000000000;3.7524709702
338.0000000000;3.8241457939
338.5000000000;3.8784544468
339.0000000000;3.9281728268
339.5000000000;3.9840245247
340.0000000000;4.0311231613
340.5000000000;4.0744223595
341.0000000000;4.1370534897
341.5000000000;4.2027482986
342.0000000000;4.2516551018
342.5000000000;4.3020892143
343.0000000000;4.3524746895
343.5000000000;4.3761496544
344.0000000000;4.4005117416
344.5000000000;4.4630622864
345.0000000000;4.5351352692
345.5000000000;4.5868058205
346.0000000000;4.6100721359
346.5000000000;4.6335024834
347.0000000000;4.6887373924
347.5000000000;4.7272877693
348.0000000000;4.7307109833
348.5000000000;4.7641358376
349.0000000000;4.8213620186
349.5000000000;4.8491058350
350.0000000000;4.8659672737
350.5000000000;4.8974676132
351.0000000000;4.9341692924
351.5000000000;4.9652090073
352.0000000000;4.9839758873
352.5000000000;4.9937710762
353.0000000000;5.0051651001
353.5000000000;5.0362100601
354.0000000000;5.0702319145
354.5000000000;5.0620522499
355.0000000000;5.0478510857
355.5000000000;5.0730605125
356.0000000000;5.0934443474
356.5000000000;5.0930085182
357.0000000000;5.1095170975
357.5000000000;5.1383862495
358.0000000000;5.1564774513
358.5000000000;5.1685705185
359.0000000000;5.1783094406
359.5000000000;5.1752953529
360.0000000000;5.1550068855
360.5000000000;5.1304488182
361.0000000000;5.1275911331
361.5000000000;5.1460480690
362.0000000000;5.1571469307
362.5000000000;5.1561827660
363.0000000000;5.1580147743
363.5000000000;5.1575007439
364.0000000000;5.1469449997
364.5000000000;5.1301856041
365.0000000000;5.1172509193
365.5000000000;5.1187090874
366.0000000000;5.1216268539
366.5000000000;5.1095099449
367.0000000000;5.0829820633
367.5000000000;5.0582852364
368.0000000000;5.0610837936
368.5000000000;5.0690102577
369.0000000000;5.0536694527
369.5000000000;5.0438051224
370.0000000000;5.0536570549
370.5000000000;5.0621771812
371.0000000000;5.0537819862
371.5000000000;5.0254707336
372.0000000000;5.0030951500
372.5000000000;5.0010342598
373.0000000000;5.0051064491
373.5000000000;5.0024814606
374.0000000000;4.9873642921
374.5000000000;4.9740414619
375.0000000000;4.9700713158
375.5000000000;4.9609718323
376.0000000000;4.9435100555
376.5000000000;4.9246830940
377.0000000000;4.9084048271
377.5000000000;4.8992166519
378.0000000000;4.9034171104
378.5000000000;4.9095773697
379.0000000000;4.8950443268
379.5000000000;4.8721151352
380.0000000000;4.8634557724
380.5000000000;4.8839559555
381.0000000000;4.9129004478
381.5000000000;4.9021277428
382.0000000000;4.8818621635
382.5000000000;4.8929433823
383.0000000000;4.8971047401
383.5000000000;4.8873715401
384.0000000000;4.9059939384
384.5000000000;4.9356093407
385.0000000000;4.9424138069
385.5000000000;4.9524602890
386.0000000000;4.9766759872
386.5000000000;4.9903264046
387.0000000000;5.0054731369
387.5000000000;5.0427794456
388.0000000000;5.0631961823
388.5000000000;5.0560669899
389.0000000000;5.0754885674
389.5000000000;5.1281580925
390.0000000000;5.1812167168
390.5000000000;5.2114033699
391.0000000000;5.2269859314
391.5000000000;5.2815356255
392.0000000000;5.3632588387
392.5000000000;5.4155278206
393.0000000000;5.4478721619
393.5000000000;5.4877152443
394.0000000000;5.5478963852
394.5000000000;5.6133599281
395.0000000000;5.6593909264
395.5000000000;5.7143936157
396.0000000000;5.8029904366
396.5000000000;5.8942852020
397.0000000000;5.9704828262
397.5000000000;6.0376052856
398.0000000000;6.1051187515
398.5000000000;6.1834917068
399.0000000000;6.2843751907
399.5000000000;6.4001917839
400.0000000000;6.5025510788
400.5000000000;6.6016001701
401.0000000000;6.7166061401
401.5000000000;6.8357105255
402.0000000000;6.9561390877
402.5000000000;7.0887432098
403.0000000000;7.2163882256
403.5000000000;7.3230576515
404.0000000000;7.4465427399
404.5000000000;7.5973720551
405.0000000000;7.7379384041
405.5000000000;7.8788018227
406.0000000000;8.0483369827
406.5000000000;8.2233648300
407.0000000000;8.3931837082
407.5000000000;8.5773820877
408.0000000000;8.7696266174
408.5000000000;8.9510478973
409.0000000000;9.1414957047
409.5000000000;9.3553037643
410.0000000000;9.5651865005
410.5000000000;9.7632427216
411.0000000000;9.9647789001
411.5000000000;10.1793489456
412.0000000000;10.4071664810
412.5000000000;10.6420412064
413.0000000000;10.8717489243
413.5000000000;11.0976524353
414.0000000000;11.3429212570
414.5000000000;11.6161441803
415.0000000000;11.8962593079
415.5000000000;12.1663532257
416.0000000000;12.4378519058
416.5000000000;12.7220888138
417.0000000000;13.0112056732
417.5000000000;13.2913160324
418.0000000000;13.5676841736
418.5000000000;13.8632469177
419.0000000000;14.1781358719
419.5000000000;14.4894075394
420.0000000000;14.7898912430
420.5000000000;15.0967121124
421.0000000000;15.4299669266
421.5000000000;15.7619094849
422.0000000000;16.0752868652
422.5000000000;16.4019126892
423.0000000000;16.7436580658
423.5000000000;17.0755958557
424.0000000000;17.4140625000
424.5000000000;17.7965183258
425.0000000000;18.1881542206
425.5000000000;18.5474605560
426.0000000000;18.9272270203
426.5000000000;19.3354721069
427.0000000000;19.7037868500
427.5000000000;20.0318813324
428.0000000000;20.3776607513
428.5000000000;20.7798690796
429.0000000000;21.2198162079
429.5000000000;21.6284217834
430.0000000000;22.0048484802
430.5000000000;22.3826694489
431.0000000000;22.7637081146
431.5000000000;23.1690807343
432.0000000000;23.6175060272
432.5000000000;24.0470886230
433.0000000000;24.4328842163
433.5000000000;24.8406219482
434.0000000000;25.2452411652
434.5000000000;25.6390113831
435.0000000000;26.0663509369
435.5000000000;26.5003623962
436.0000000000;26.9176120758
436.5000000000;27.3242568970
437.0000000000;27.7232398987
437.5000000000;28.1288928986
438.0000000000;28.5471515656
438.5000000000;28.9649410248
439.0000000000;29.3763103485
439.5000000000;29.7840957642
440.0000000000;30.2006626129
440.5000000000;30.6314067841
441.0000000000;31.0411205292
441.5000000000;31.4018573761
442.0000000000;31.7750816345
442.5000000000;32.2053222656
443.0000000000;32.6593971252
443.5000000000;33.0855369568
444.0000000000;33.4728240967
444.5000000000;33.8521080017
445.0000000000;34.2469902039
445.5000000000;34.6634445190
446.0000000000;35.0687828064
446.5000000000;35.4536895752
447.0000000000;35.8519325256
447.5000000000;36.2632598877
448.0000000000;36.6617279053
448.5000000000;37.0440406799
449.0000000000;37.4184951782
449.5000000000;37.7982025146
450.0000000000;38.1862373352
450.5000000000;38.5796623230
451.0000000000;38.9755897522
451.5000000000;39.3667449951
452.0000000000;39.7457542419
452.5000000000;40.1169586182
453.0000000000;40.4901275635
453.5000000000;40.8618583679
454.0000000000;41.2307472229
454.5000000000;41.6037635803
455.0000000000;41.9749794006
455.5000000000;42.3348808289
456.0000000000;42.6840362549
456.5000000000;43.0307235718
457.0000000000;43.3851242065
457.5000000000;43.7361793518
458.0000000000;44.0698165894
458.5000000000;44.3974266052
459.0000000000;44.7407341003
459.5000000000;45.0993614197
460.0000000000;45.4612274170
460.5000000000;45.8237533569
461.0000000000;46.1869506836
461.5000000000;46.5338783264
462.0000000000;46.8553771973
462.5000000000;47.1613769531
463.0000000000;47.4502296448
463.5000000000;47.7481193542
464.0000000000;48.0807266235
464.5000000000;48.4054679871
465.0000000000;48.7199401855
465.5000000000;49.0600433350
466.0000000000;49.3822937012
466.5000000000;49.6668014526
467.0000000000;49.9889106750
467.5000000000;50.3345794678
468.0000000000;50.6351127625
468.5000000000;50.9243698120
469.0000000000;51.2501678467
469.5000000000;51.6002922058
470.0000000000;51.9357337952
470.5000000000;52.2249069214
471.0000000000;52.5009841919
471.5000000000;52.7947273254
472.0000000000;53.0903472900
472.5000000000;53.3655166626
473.0000000000;53.6066131592
473.5000000000;53.8587875366
474.0000000000;54.1634979248
474.5000000000;54.4871063232
475.0000000000;54.7836608887
475.5000000000;55.0383186340
476.0000000000;55.2883949280
476.5000000000;55.5615386963
477.0000000000;55.8387222290
477.5000000000;56.1090621948
478.0000000000;56.3692398071
478.5000000000;56.6272087097
479.0000000000;56.8963508606
479.5000000000;57.1579818726
480.0000000000;57.4001541138
480.5000000000;57.6410026550
481.0000000000;57.8999595642
481.5000000000;58.1711883545
482.0000000000;58.4107971191
482.5000000000;58.6253433228
483.0000000000;58.8568191528
483.5000000000;59.0887680054
484.0000000000;59.2949142456
484.5000000000;59.4854888916
485.0000000000;59.7419967651
485.5000000000;60.0509376526
486.0000000000;60.1847877502
486.5000000000;60.1717758179
487.0000000000;60.3662719727
487.5000000000;60.8059959412
488.0000000000;61.1186752319
488.5000000000;61.3113670349
489.0000000000;61.5210151672
489.5000000000;61.7326736450
490.0000000000;61.9296150208
490.5000000000;62.1252326965
491.0000000000;62.3322257996
491.5000000000;62.5520973206
492.0000000000;62.7718544006
492.5000000000;62.9638214111
493.0000000000;63.1089668274
493.5000000000;63.2721099854
494.0000000000;63.5032310486
494.5000000000;63.7461891174
495.0000000000;63.9634628296
495.5000000000;64.1578598022
496.0000000000;64.3362503052
496.5000000000;64.5022506714
497.0000000000;64.6617584229
497.5000000000;64.8334121704
498.0000000000;65.0237884521
498.5000000000;65.1865692139
499.0000000000;65.3113555908
499.5000000000;65.4784164429
500.0000000000;65.6907424927
500.5000000000;65.8771362305
501.0000000000;66.0195617676
501.5000000000;66.1410751343
502.0000000000;66.3029708862
502.5000000000;66.4948577881
503.0000000000;66.6491317749
503.5000000000;66.8034591675
504.0000000000;66.9937362671
504.5000000000;67.1645507813
505.0000000000;67.3020095825
505.5000000000;67.4370574951
506.0000000000;67.5854187012
506.5000000000;67.7492904663
507.0000000000;67.9127502441
507.5000000000;68.0616455078
508.0000000000;68.1873779297
508.5000000000;68.3167419434
509.0000000000;68.4741439819
509.5000000000;68.6421508789
510.0000000000;68.7908096313
510.5000000000;68.9013824463
511.0000000000;69.0127944946
511.5000000000;69.1514358521
512.0000000000;69.2895050049
512.5000000000;69.4168319702
513.0000000000;69.5423278809
513.5000000000;69.6914215088
514.0000000000;69.8601760864
514.5000000000;69.9834823608
515.0000000000;70.0834426880
515.5000000000;70.2298049927
516.0000000000;70.3743667603
516.5000000000;70.4836578369
517.0000000000;70.6067428589
517.5000000000;70.7393417358
518.0000000000;70.8467712402
518.5000000000;70.9615478516
519.0000000000;71.0987319946
519.5000000000;71.2140045166
520.0000000000;71.3172912598
520.5000000000;71.4464721680
521.0000000000;71.5702362061
521.5000000000;71.6723709106
522.0000000000;71.7956161499
522.5000000000;71.9322280884
523.0000000000;72.0449752808
523.5000000000;72.1504364014
524.0000000000;72.2680511475
524.5000000000;72.3945541382
525.0000000000;72.5114517212
525.5000000000;72.6025772095
526.0000000000;72.6931457520
526.5000000000;72.7963714600
527.0000000000;72.8941726685
527.5000000000;72.9968490601
528.0000000000;73.1213912964
528.5000000000;73.2365188599
529.0000000000;73.3324508667
529.5000000000;73.4445953369
530.0000000000;73.5545806885
530.5000000000;73.6326065063
531.0000000000;73.7334060669
531.5000000000;73.8701324463
532.0000000000;73.9783172607
532.5000000000;74.0591659546
533.0000000000;74.1444473267
533.5000000000;74.2342681885
534.0000000000;74.3287200928
534.5000000000;74.4338226318
535.0000000000;74.5384597778
535.5000000000;74.6303405762
536.0000000000;74.7245025635
536.5000000000;74.8257598877
537.0000000000;74.9197616577
537.5000000000;75.0070037842
538.0000000000;75.0940551758
538.5000000000;75.1805648804
539.0000000000;75.2658004761
539.5000000000;75.3504333496
540.0000000000;75.4449920654
540.5000000000;75.5549087524
541.0000000000;75.6599502563
541.5000000000;75.7481079102
542.0000000000;75.8222808838
542.5000000000;75.8994064331
543.0000000000;75.9956054688
543.5000000000;76.1039810181
544.0000000000;76.2079086304
544.5000000000;76.2926635742
545.0000000000;76.3726272583
545.5000000000;76.4634704590
546.0000000000;76.5566711426
546.5000000000;76.6457748413
547.0000000000;76.7301101685
547.5000000000;76.8064804077
548.0000000000;76.8746032715
548.5000000000;76.9435424805
549.0000000000;77.0306091309
549.5000000000;77.1480789185
550.0000000000;77.2565612793
550.5000000000;77.3339157104
551.0000000000;77.4218368530
551.5000000000;77.5210189819
552.0000000000;77.6019058228
552.5000000000;77.6870117188
553.0000000000;77.7858810425
553.5000000000;77.8537750244
554.0000000000;77.9054718018
554.5000000000;77.9908447266
555.0000000000;78.0885620117
555.5000000000;78.1717681885
556.0000000000;78.2448043823
556.5000000000;78.3233566284
557.0000000000;78.4182586670
557.5000000000;78.5013885498
558.0000000000;78.5671234131
558.5000000000;78.6556396484
559.0000000000;78.7602310181
559.5000000000;78.8485412598
560.0000000000;78.9188842773
560.5000000000;78.9858245850
561.0000000000;79.0710449219
561.5000000000;79.1581878662
562.0000000000;79.2243194580
562.5000000000;79.2980346680
563.0000000000;79.3922119141
563.5000000000;79.4870529175
564.0000000000;79.5679550171
564.5000000000;79.6330032349
565.0000000000;79.7073669434
565.5000000000;79.7990341187
566.0000000000;79.8911666870
566.5000000000;79.9751892090
567.0000000000;80.0513610840
567.5000000000;80.1344146729
568.0000000000;80.2183227539
568.5000000000;80.2688674927
569.0000000000;80.2704696655
569.5000000000;80.2532272339
570.0000000000;80.3208618164
570.5000000000;80.4380798340
571.0000000000;80.4349899292
571.5000000000;80.2935943604
572.0000000000;80.1973114014
572.5000000000;80.3906097412
573.0000000000;80.7240600586
573.5000000000;80.8702087402
574.0000000000;80.8659133911
574.5000000000;80.8372726440
575.0000000000;80.8595657349
575.5000000000;80.9246444702
576.0000000000;80.9913558960
576.5000000000;81.1383514404
577.0000000000;81.3259124756
577.5000000000;81.2984085083
578.0000000000;81.2113265991
578.5000000000;81.3726959229
579.0000000000;81.6469039917
579.5000000000;81.8156051636
580.0000000000;81.7748489380
580.5000000000;81.6555938721
581.0000000000;81.6267929077
581.5000000000;81.5394058228
582.0000000000;81.4262390137
582.5000000000;81.5454483032
583.0000000000;81.8026962280
583.5000000000;81.9260635376
584.0000000000;81.8966217041
584.5000000000;81.8340606689
585.0000000000;81.8859024048
585.5000000000;82.0026473999
586.0000000000;82.0918807983
586.5000000000;82.1755218506
587.0000000000;82.2514572144
587.5000000000;82.2828445435
588.0000000000;82.2873764038
588.5000000000;82.3092727661
589.0000000000;82.4040374756
589.5000000000;82.5546417236
590.0000000000;82.6731033325
590.5000000000;82.7375793457
591.0000000000;82.7702255249
591.5000000000;82.8126144409
592.0000000000;82.8701095581
592.5000000000;82.9188919067
593.0000000000;82.9472274780
593.5000000000;82.9799346924
594.0000000000;83.0779037476
594.5000000000;83.1755752563
595.0000000000;83.1832275391
595.5000000000;83.2223663330
596.0000000000;83.3456573486
596.5000000000;83.4442062378
597.0000000000;83.4920043945
597.5000000000;83.5309829712
598.0000000000;83.6150970459
598.5000000000;83.7332229614
599.0000000000;83.8028793335
599.5000000000;83.8517379761
600.0000000000;83.9235382080
600.5000000000;83.9569778442
601.0000000000;83.9523925781
601.5000000000;83.9811859131
602.0000000000;84.0609054565
602.5000000000;84.1616439819
603.0000000000;84.2052764893
603.5000000000;84.2129745483
604.0000000000;84.2731781006
604.5000000000;84.3646774292
605.0000000000;84.4400939941
605.5000000000;84.4979553223
606.0000000000;84.5319061279
606.5000000000;84.5350189209
607.0000000000;84.5553283691
607.5000000000;84.6086883545
608.0000000000;84.6420745850
608.5000000000;84.6689682007
609.0000000000;84.7214431763
609.5000000000;84.7355499268
610.0000000000;84.7086639404
610.5000000000;84.7309722900
611.0000000000;84.7772979736
611.5000000000;84.7917785645
612.0000000000;84.8092803955
612.5000000000;84.8408966064
613.0000000000;84.8570938110
613.5000000000;84.8604507446
614.0000000000;84.8695983887
614.5000000000;84.9044342041
615.0000000000;84.9461441040
615.5000000000;84.9526443481
616.0000000000;84.9724273682
616.5000000000;85.0379104614
617.0000000000;85.0850524902
617.5000000000;85.0961990356
618.0000000000;85.0998458862
618.5000000000;85.1106567383
619.0000000000;85.1264038086
619.5000000000;85.1277618408
620.0000000000;85.1319656372
620.5000000000;85.1700286865
621.0000000000;85.2362365723
621.5000000000;85.2947845459
622.0000000000;85.2956771851
622.5000000000;85.2819213867
623.0000000000;85.3122406006
623.5000000000;85.3569946289
624.0000000000;85.3987731934
624.5000000000;85.4497146606
625.0000000000;85.5142211914
625.5000000000;85.5818099976
626.0000000000;85.6193618774
626.5000000000;85.6374511719
627.0000000000;85.6763458252
627.5000000000;85.7080383301
628.0000000000;85.7205505371
628.5000000000;85.7706832886
629.0000000000;85.8376922607
629.5000000000;85.8630981445
630.0000000000;85.8911895752
630.5000000000;85.9536743164
631.0000000000;86.0203781128
631.5000000000;86.0737915039
632.0000000000;86.1113739014
632.5000000000;86.1407775879
633.0000000000;86.1712112427
633.5000000000;86.2102890015
634.0000000000;86.2585449219
634.5000000000;86.3077468872
635.0000000000;86.3364868164
635.5000000000;86.3489532471
636.0000000000;86.3721923828
636.5000000000;86.4030075073
637.0000000000;86.4311370850
637.5000000000;86.4560241699
638.0000000000;86.4857864380
638.5000000000;86.5308685303
639.0000000000;86.5805130005
639.5000000000;86.6197280884
640.0000000000;86.6400451660
640.5000000000;86.6576843262
641.0000000000;86.6931915283
641.5000000000;86.7257461548
642.0000000000;86.7460403442
642.5000000000;86.7705841064
643.0000000000;86.7873535156
643.5000000000;86.7865982056
644.0000000000;86.8067703247
644.5000000000;86.8501510620
645.0000000000;86.8773574829
645.5000000000;86.8919601440
646.0000000000;86.9087219238
646.5000000000;86.9262390137
647.0000000000;86.9473953247
647.5000000000;86.9763412476
648.0000000000;86.9963836670
648.5000000000;87.0020675659
649.0000000000;87.0166320801
649.5000000000;87.0409774780
650.0000000000;87.0637741089
650.5000000000;87.0899963379
651.0000000000;87.1155166626
651.5000000000;87.1226196289
652.0000000000;87.1284942627
652.5000000000;87.1577224731
653.0000000000;87.2019958496
653.5000000000;87.2241058350
654.0000000000;87.1985626221
654.5000000000;87.3379364014
655.0000000000;87.5983963013
655.5000000000;87.2703094482
656.0000000000;86.8730239868
656.5000000000;86.3641052246
657.0000000000;86.0371932983
657.5000000000;86.9822311401
658.0000000000;87.6051788330
658.5000000000;87.4927902222
659.0000000000;87.5220260620
659.5000000000;87.6252746582
660.0000000000;87.6642532349
660.5000000000;87.6976089478
661.0000000000;87.7340850830
661.5000000000;87.7648239136
662.0000000000;87.8176040649
662.5000000000;87.8793258667
663.0000000000;87.9037246704
663.5000000000;87.9278411865
664.0000000000;87.9841232300
664.5000000000;88.0330581665
665.0000000000;88.0695114136
665.5000000000;88.1184082031
666.0000000000;88.1857376099
666.5000000000;88.2597045898
667.0000000000;88.3120117188
667.5000000000;88.3452148438
668.0000000000;88.3782424927
668.5000000000;88.4189453125
669.0000000000;88.4624557495
669.5000000000;88.4956130981
670.0000000000;88.5321350098
670.5000000000;88.5835800171
671.0000000000;88.6283416748
671.5000000000;88.6656036377
672.0000000000;88.7123184204
672.5000000000;88.7561950684
673.0000000000;88.7895812988
673.5000000000;88.8288955688
674.0000000000;88.8750610352
674.5000000000;88.9193954468
675.0000000000;88.9628067017
675.5000000000;89.0019454956
676.0000000000;89.0280914307
676.5000000000;89.0590286255
677.0000000000;89.1105651855
677.5000000000;89.1567611694
678.0000000000;89.1895675659
678.5000000000;89.2241363525
679.0000000000;89.2611770630
679.5000000000;89.2935867310
680.0000000000;89.3131179810
680.5000000000;89.3367919922
681.0000000000;89.3867416382
681.5000000000;89.4276885986
682.0000000000;89.4454116821
682.5000000000;89.4756469727
683.0000000000;89.5197753906
683.5000000000;89.5591964722
684.0000000000;89.5813446045
684.5000000000;89.5806808472
685.0000000000;89.5637283325
685.5000000000;89.5777282715
686.0000000000;89.6478424072
686.5000000000;89.7164077759
687.0000000000;89.7535934448
687.5000000000;89.7677688599
688.0000000000;89.7882766724
688.5000000000;89.8255310059
689.0000000000;89.8528213501
689.5000000000;89.8685455322
690.0000000000;89.8864288330
690.5000000000;89.9132843018
691.0000000000;89.9423599243
691.5000000000;89.9577331543
692.0000000000;89.9789733887
692.5000000000;90.0178222656
693.0000000000;90.0346755981
693.5000000000;90.0430297852
694.0000000000;90.0910568237
694.5000000000;90.1435928345
695.0000000000;90.1719589233
695.5000000000;90.2019195557
696.0000000000;90.2382431030
696.5000000000;90.2690124512
697.0000000000;90.2846908569
697.5000000000;90.2984542847
698.0000000000;90.3430633545
698.5000000000;90.4016876221
699.0000000000;90.4479904175
699.5000000000;90.4903106689
700.0000000000;90.5287246704
700.5000000000;90.5566024780
701.0000000000;90.5946426392
701.5000000000;90.6476745605
702.0000000000;90.6821670532
702.5000000000;90.7047805786
703.0000000000;90.7424468994
703.5000000000;90.7954940796
704.0000000000;90.8486709595
704.5000000000;90.8817825317
705.0000000000;90.9185562134
705.5000000000;90.9761123657
706.0000000000;91.0112991333
706.5000000000;91.0232543945
707.0000000000;91.0481567383
707.5000000000;91.0870513916
708.0000000000;91.1346893311
708.5000000000;91.1924362183
709.0000000000;91.2563095093
709.5000000000;91.3178710938
710.0000000000;91.3628921509
710.5000000000;91.3951950073
711.0000000000;91.4385299683
711.5000000000;91.4909286499
712.0000000000;91.5403976440
712.5000000000;91.5801925659
713.0000000000;91.6113586426
713.5000000000;91.6421966553
714.0000000000;91.6881408691
714.5000000000;91.7442626953
715.0000000000;91.7759170532
715.5000000000;91.8044662476
716.0000000000;91.8647232056
716.5000000000;91.9281921387
717.0000000000;91.9795150757
717.5000000000;92.0292892456
718.0000000000;92.0702362061
718.5000000000;92.1000366211
719.0000000000;92.1402511597
719.5000000000;92.1958618164
720.0000000000;92.2564239502
720.5000000000;92.3059768677
721.0000000000;92.3428955078
721.5000000000;92.3867416382
722.0000000000;92.4374542236
722.5000000000;92.4853515625
723.0000000000;92.5249862671
723.5000000000;92.5556411743
724.0000000000;92.5826263428
724.5000000000;92.6162796021
725.0000000000;92.6548461914
725.5000000000;92.6751022339
726.0000000000;92.6903533936
726.5000000000;92.7280349731
727.0000000000;92.7713546753
727.5000000000;92.8122711182
728.0000000000;92.8642959595
728.5000000000;92.9104232788
729.0000000000;92.9360122681
729.5000000000;92.9666442871
730.0000000000;93.0019836426
730.5000000000;93.0195312500
731.0000000000;93.0279846191
731.5000000000;93.0485839844
732.0000000000;93.1028671265
732.5000000000;93.1690826416
733.0000000000;93.2113952637
733.5000000000;93.2345352173
734.0000000000;93.2467117310
734.5000000000;93.2513961792
735.0000000000;93.2546463013
735.5000000000;93.2706375122
736.0000000000;93.3240661621
736.5000000000;93.3823242188
737.0000000000;93.3950271606
737.5000000000;93.4227371216
738.0000000000;93.4897689819
738.5000000000;93.5338821411
739.0000000000;93.5373992920
739.5000000000;93.5185317993
740.0000000000;93.5153198242
740.5000000000;93.5421524048
741.0000000000;93.5870742798
741.5000000000;93.6247482300
742.0000000000;93.6452789307
742.5000000000;93.6721420288
743.0000000000;93.7068023682
743.5000000000;93.7350006104
744.0000000000;93.7453994751
744.5000000000;93.7515792847
745.0000000000;93.7849807739
745.5000000000;93.8182220459
746.0000000000;93.8281173706
746.5000000000;93.8484573364
747.0000000000;93.8694839478
747.5000000000;93.8623733521
748.0000000000;93.8725891113
748.5000000000;93.9162139893
749.0000000000;93.9486770630
749.5000000000;93.9669494629
750.0000000000;93.9815673828
750.5000000000;93.9816131592
751.0000000000;93.9852600098
751.5000000000;94.0273742676
752.0000000000;94.0793609619
752.5000000000;94.1024932861
753.0000000000;94.0808410645
753.5000000000;94.0586547852
754.0000000000;94.0876693726
754.5000000000;94.1457595825
755.0000000000;94.2006530762
755.5000000000;94.2273559570
756.0000000000;94.2228927612
756.5000000000;94.2032775879
757.0000000000;94.2015991211
757.5000000000;94.2232055664
758.0000000000;94.2533950806
758.5000000000;94.2781448364
759.0000000000;94.2999572754
759.5000000000;94.3376083374
760.0000000000;94.3851318359
760.5000000000;94.4264984131
761.0000000000;94.4488143921
761.5000000000;94.4824600220
762.0000000000;94.5651855469
762.5000000000;94.6139602661
763.0000000000;94.5976562500
763.5000000000;94.5989379883
764.0000000000;94.6289596558
764.5000000000;94.6642684937
765.0000000000;94.6966552734
765.5000000000;94.7333526611
766.0000000000;94.7880401611
766.5000000000;94.8520660400
767.0000000000;94.9040069580
767.5000000000;94.9159469604
768.0000000000;94.8950576782
768.5000000000;94.8702163696
769.0000000000;94.8709793091
769.5000000000;94.9171905518
770.0000000000;95.0098190308
770.5000000000;95.0885848999
771.0000000000;95.1141204834
771.5000000000;95.1297683716
772.0000000000;95.1707992554
772.5000000000;95.2420654297
773.0000000000;95.2880554199
773.5000000000;95.2972869873
774.0000000000;95.3151779175
774.5000000000;95.3562774658
775.0000000000;95.4102020264
775.5000000000;95.4454956055
776.0000000000;95.4603576660
776.5000000000;95.4740447998
777.0000000000;95.4980926514
777.5000000000;95.5351181030
778.0000000000;95.5766983032
778.5000000000;95.5985870361
779.0000000000;95.5897827148
779.5000000000;95.5808486938
780.0000000000;95.5937728882
780.5000000000;95.6326446533
781.0000000000;95.6702499390
781.5000000000;95.6928787231
782.0000000000;95.7152862549
782.5000000000;95.7356109619
783.0000000000;95.7518920898
783.5000000000;95.7822723389
784.0000000000;95.8289566040
784.5000000000;95.8770446777
785.0000000000;95.9031448364
785.5000000000;95.9103927612
786.0000000000;95.9384536743
786.5000000000;95.9760513306
787.0000000000;95.9995193481
787.5000000000;96.0234527588
788.0000000000;96.0371856689
788.5000000000;96.0183181763
789.0000000000;96.0182113647
789.5000000000;96.0581588745
790.0000000000;96.0878677368
790.5000000000;96.1092453003
791.0000000000;96.1412353516
791.5000000000;96.1657485962
792.0000000000;96.1871795654
792.5000000000;96.2257919312
793.0000000000;96.2518386841
793.5000000000;96.2401885986
794.0000000000;96.2014923096
794.5000000000;96.1828002930
795.0000000000;96.2209548950
795.5000000000;96.2763519287
796.0000000000;96.3240127563
796.5000000000;96.3624496460
797.0000000000;96.3769836426
797.5000000000;96.3688507080
798.0000000000;96.3680953979
798.5000000000;96.3786773682
799.0000000000;96.3918304443
799.5000000000;96.4088058472
800.0000000000;96.4283447266
800.5000000000;96.4452667236
801.0000000000;96.4567794800
801.5000000000;96.4643020630
802.0000000000;96.4754714966
802.5000000000;96.5041885376
803.0000000000;96.5493545532
803.5000000000;96.5615921021
804.0000000000;96.5533294678
804.5000000000;96.5850830078
805.0000000000;96.6151046753
805.5000000000;96.6040191650
806.0000000000;96.5741806030
806.5000000000;96.5637207031
807.0000000000;96.5967941284
807.5000000000;96.6409759521
808.0000000000;96.6642837524
808.5000000000;96.6576766968
809.0000000000;96.6724853516
809.5000000000;96.7236175537
810.0000000000;96.7417984009
810.5000000000;96.7259445190
811.0000000000;96.7143249512
811.5000000000;96.7299041748
812.0000000000;96.7630996704
812.5000000000;96.7828140259
813.0000000000;96.7933578491
813.5000000000;96.7982406616
814.0000000000;96.7866058350
814.5000000000;96.7910842896
815.0000000000;96.8342666626
815.5000000000;96.8479003906
816.0000000000;96.8324966431
816.5000000000;96.8484878540
817.0000000000;96.8765640259
817.5000000000;96.8971557617
818.0000000000;96.9242782593
818.5000000000;96.9412765503
819.0000000000;96.9346237183
819.5000000000;96.9411697388
820.0000000000;96.9520797729
820.5000000000;96.9313430786
821.0000000000;96.9294128418
821.5000000000;96.9652557373
822.0000000000;96.9859313965
822.5000000000;97.0013809204
823.0000000000;97.0293197632
823.5000000000;97.0276947021
824.0000000000;97.0139083862
824.5000000000;97.0393829346
825.0000000000;97.0654678345
825.5000000000;97.0700836182
826.0000000000;97.0803222656
826.5000000000;97.0874481201
827.0000000000;97.0812911987
827.5000000000;97.0868606567
828.0000000000;97.1089935303
828.5000000000;97.1338882446
829.0000000000;97.1484069824
829.5000000000;97.1618347168
830.0000000000;97.2015838623
830.5000000000;97.2308044434
831.0000000000;97.2247543335
831.5000000000;97.2345123291
832.0000000000;97.2466888428
832.5000000000;97.2228393555
833.0000000000;97.2126235962
833.5000000000;97.2340011597
834.0000000000;97.2501678467
834.5000000000;97.2390899658
835.0000000000;97.2148895264
835.5000000000;97.2376174927
836.0000000000;97.2837524414
836.5000000000;97.2991485596
837.0000000000;97.3081741333
837.5000000000;97.3216934204
838.0000000000;97.3252563477
838.5000000000;97.3242187500
839.0000000000;97.3289260864
839.5000000000;97.3445434570
840.0000000000;97.3601531982
840.5000000000;97.3608703613
841.0000000000;97.3455963135
841.5000000000;97.3424911499
842.0000000000;97.3823242188
842.5000000000;97.4005355835
843.0000000000;97.3772125244
843.5000000000;97.3845596313
844.0000000000;97.4107208252
844.5000000000;97.4209213257
845.0000000000;97.4273910522
845.5000000000;97.4318084717
846.0000000000;97.4288406372
846.5000000000;97.4361572266
847.0000000000;97.4523391724
847.5000000000;97.4516448975
848.0000000000;97.4509887695
848.5000000000;97.4615402222
849.0000000000;97.4509811401
849.5000000000;97.4292526245
850.0000000000;97.4272460938
850.5000000000;97.4411773682
851.0000000000;97.4531707764
851.5000000000;97.4456176758
852.0000000000;97.4417877197
852.5000000000;97.4455795288
853.0000000000;97.4155120850
853.5000000000;97.3897781372
854.0000000000;97.4133300781
854.5000000000;97.4261169434
855.0000000000;97.4144744873
855.5000000000;97.4184036255
856.0000000000;97.4523696899
856.5000000000;97.4952697754
857.0000000000;97.4975357056
857.5000000000;97.4783859253
858.0000000000;97.4734649658
858.5000000000;97.4804534912
859.0000000000;97.4833068848
859.5000000000;97.4719390869
860.0000000000;97.4789733887
860.5000000000;97.5001525879
861.0000000000;97.4901046753
861.5000000000;97.4822616577
862.0000000000;97.5092315674
862.5000000000;97.5445022583
863.0000000000;97.5401077271
863.5000000000;97.4831390381
864.0000000000;97.4810867310
864.5000000000;97.5274658203
865.0000000000;97.5198059082
865.5000000000;97.5084762573
866.0000000000;97.5289688110
866.5000000000;97.5322875977
867.0000000000;97.5186538696
867.5000000000;97.5096511841
868.0000000000;97.5133819580
868.5000000000;97.5258331299
869.0000000000;97.5385894775
869.5000000000;97.5548171997
870.0000000000;97.5630950928
870.5000000000;97.5418090820
871.0000000000;97.5272903442
871.5000000000;97.5476150513
872.0000000000;97.5752868652
872.5000000000;97.5727081299
873.0000000000;97.5335769653
873.5000000000;97.5395431519
874.0000000000;97.5799942017
874.5000000000;97.5742492676
875.0000000000;97.5690689087
875.5000000000;97.5897293091
876.0000000000;97.5859069824
876.5000000000;97.5665054321
877.0000000000;97.5603790283
877.5000000000;97.5718917847
878.0000000000;97.5830001831
878.5000000000;97.5718231201
879.0000000000;97.5497055054
879.5000000000;97.5415039063
880.0000000000;97.5710601807
880.5000000000;97.6175765991
881.0000000000;97.6495666504
881.5000000000;97.6497268677
882.0000000000;97.6345825195
882.5000000000;97.6305160522
883.0000000000;97.6416625977
883.5000000000;97.6464309692
884.0000000000;97.6229400635
884.5000000000;97.6186981201
885.0000000000;97.6442565918
885.5000000000;97.6492614746
886.0000000000;97.6379699707
886.5000000000;97.6346282959
887.0000000000;97.6529159546
887.5000000000;97.6625442505
888.0000000000;97.6408538818
888.5000000000;97.6588592529
889.0000000000;97.6912841797
889.5000000000;97.6485519409
890.0000000000;97.6325149536
890.5000000000;97.6947021484
891.0000000000;97.7464675903
891.5000000000;97.7455520630
892.0000000000;97.7095565796
892.5000000000;97.7182464600
893.0000000000;97.7655029297
893.5000000000;97.7908096313
894.0000000000;97.7693099976
894.5000000000;97.7293701172
895.0000000000;97.7301635742
895.5000000000;97.7505493164
896.0000000000;97.7639160156
896.5000000000;97.7747421265
897.0000000000;97.7879791260
897.5000000000;97.7985382080
898.0000000000;97.7841949463
898.5000000000;97.7640457153
899.0000000000;97.7693786621
899.5000000000;97.7664031982
900.0000000000;97.7660598755
900.5000000000;97.8236236572
901.0000000000;97.8871612549
901.5000000000;97.9004135132
902.0000000000;97.8658523560
902.5000000000;97.8438873291
903.0000000000;97.8752593994
903.5000000000;97.8914718628
904.0000000000;97.8761978149
904.5000000000;97.8597793579
905.0000000000;97.8503036499
905.5000000000;97.8654632568
906.0000000000;97.9215316772
906.5000000000;97.9341125488
907.0000000000;97.8890533447
907.5000000000;97.9226989746
908.0000000000;97.9912338257
908.5000000000;97.9949340820
909.0000000000;97.9467544556
909.5000000000;97.9287338257
910.0000000000;98.0059356689
910.5000000000;98.0403747559
911.0000000000;97.9852066040
911.5000000000;97.9380340576
912.0000000000;97.9542541504
912.5000000000;98.0210037231
913.0000000000;98.0514221191
913.5000000000;98.0402679443
914.0000000000;98.0237655640
914.5000000000;98.0240020752
915.0000000000;98.0304794312
915.5000000000;98.0207977295
916.0000000000;98.0104446411
916.5000000000;98.0202560425
917.0000000000;98.0562820435
917.5000000000;98.0640487671
918.0000000000;98.0415878296
918.5000000000;98.0843200684
919.0000000000;98.1443634033
919.5000000000;98.1569824219
920.0000000000;98.1928939819
920.5000000000;98.2250442505
921.0000000000;98.1836395264
921.5000000000;98.1388854980
922.0000000000;98.1333770752
922.5000000000;98.1531982422
923.0000000000;98.2026138306
923.5000000000;98.2716445923
924.0000000000;98.3202056885
924.5000000000;98.3238449097
925.0000000000;98.2954406738
925.5000000000;98.3001632690
926.0000000000;98.3182296753
926.5000000000;98.2964324951
927.0000000000;98.2692565918
927.5000000000;98.2934646606
928.0000000000;98.3893890381
928.5000000000;98.3925628662
929.0000000000;98.2997817993
929.5000000000;98.3468780518
930.0000000000;98.4176483154
930.5000000000;98.3969345093
931.0000000000;98.4481353760
931.5000000000;98.5149841309
932.0000000000;98.4848556519
932.5000000000;98.4964523315
933.0000000000;98.5349884033
933.5000000000;98.4821853638
934.0000000000;98.4754867554
934.5000000000;98.5371856689
935.0000000000;98.5171585083
935.5000000000;98.5140914917
936.0000000000;98.6093978882
936.5000000000;98.6971130371
937.0000000000;98.7047119141
937.5000000000;98.6370239258
938.0000000000;98.6076736450
938.5000000000;98.6295089722
939.0000000000;98.6481475830
939.5000000000;98.6723098755
940.0000000000;98.7125625610
940.5000000000;98.7591323853
941.0000000000;98.7649002075
941.5000000000;98.7335205078
942.0000000000;98.7463607788
942.5000000000;98.8068084717
943.0000000000;98.8581848145
943.5000000000;98.8174667358
944.0000000000;98.7872467041
944.5000000000;98.8792800903
945.0000000000;98.9133224487
945.5000000000;98.8956832886
946.0000000000;98.9756164551
946.5000000000;99.0480041504
947.0000000000;99.0451049805
947.5000000000;99.0213241577
948.0000000000;99.0343170166
948.5000000000;99.0849761963
949.0000000000;99.0978546143
949.5000000000;99.1151275635
950.0000000000;99.1746597290
950.5000000000;99.1715698242
951.0000000000;99.1250381470
951.5000000000;99.1223220825
952.0000000000;99.1468582153
952.5000000000;99.2183074951
953.0000000000;99.3687133789
953.5000000000;99.4442825317
954.0000000000;99.4042663574
954.5000000000;99.3997802734
955.0000000000;99.4160003662
955.5000000000;99.4246749878
956.0000000000;99.4877395630
956.5000000000;99.5585556030
957.0000000000;99.5774078369
957.5000000000;99.6067657471
958.0000000000;99.6568908691
958.5000000000;99.6972198486
959.0000000000;99.7345886230
959.5000000000;99.7349624634
960.0000000000;99.6563034058
960.5000000000;99.6416091919
961.0000000000;99.7437667847
961.5000000000;99.8289642334
962.0000000000;99.8123626709
962.5000000000;99.7233963013
963.0000000000;99.7293319702
963.5000000000;99.8152923584
964.0000000000;99.8800811768
964.5000000000;99.8843917847
965.0000000000;99.8823852539
965.5000000000;99.9415512085
966.0000000000;99.9680175781
966.5000000000;99.8922958374
967.0000000000;99.7383728027
967.5000000000;99.6884231567
968.0000000000;99.8107986450
968.5000000000;99.9535293579
969.0000000000;99.8843154907
969.5000000000;99.6361083984
970.0000000000;99.6720046997
970.5000000000;99.7946014404
971.0000000000;99.7055587769
971.5000000000;99.7257461548
972.0000000000;99.8138732910
972.5000000000;99.7568283081
973.0000000000;99.7981338501
973.5000000000;99.9136352539
974.0000000000;99.8453979492
974.5000000000;99.7691192627
975.0000000000;99.7633132935
975.5000000000;99.6914215088
976.0000000000;99.7105789185
976.5000000000;99.8788833618
977.0000000000;99.9296722412
977.5000000000;99.7408447266
978.0000000000;99.4442443848
978.5000000000;99.4679183960
979.0000000000;99.6717987061
979.5000000000;99.6960906982
980.0000000000;99.6685943604
980.5000000000;99.7058258057
981.0000000000;99.7853927612
981.5000000000;99.6861495972
982.0000000000;99.4928283691
982.5000000000;99.5660781860
983.0000000000;99.7222137451
983.5000000000;99.7346649170
984.0000000000;99.5988235474
984.5000000000;99.5075912476
985.0000000000;99.5663223267
985.5000000000;99.5944976807
986.0000000000;99.6402893066
986.5000000000;99.7514419556
987.0000000000;99.6618423462
987.5000000000;99.4966659546
988.0000000000;99.5494461060
988.5000000000;99.6491775513
989.0000000000;99.6627120972
989.5000000000;99.6061401367
990.0000000000;99.6095962524
990.5000000000;99.6428070068
991.0000000000;99.5259017944
991.5000000000;99.4822235107
992.0000000000;99.5898666382
992.5000000000;99.5432052612
993.0000000000;99.4303894043
993.5000000000;99.4558029175
994.0000000000;99.6417922974
994.5000000000;99.7218170166
995.0000000000;99.4889144897
995.5000000000;99.2730712891
996.0000000000;99.2151031494
996.5000000000;99.2396087646
997.0000000000;99.2458953857
997.5000000000;99.3344421387
998.0000000000;99.6305389404
998.5000000000;99.5599594116
999.0000000000;99.1922225952
999.5000000000;99.3523864746
1000.0000000000;99.5418395996
1000.5000000000;99.3604431152
1001.0000000000;99.2414093018
1001.5000000000;99.3263320923
1002.0000000000;99.5019378662
1002.5000000000;99.5124053955
1003.0000000000;99.4522323608
1003.5000000000;99.5140609741
1004.0000000000;99.6132659912
1004.5000000000;99.5935821533
1005.0000000000;99.3979721069
1005.5000000000;99.3217926025
1006.0000000000;99.3779144287
1006.5000000000;99.3408584595
1007.0000000000;99.2856597900
1007.5000000000;99.2702178955
1008.0000000000;99.2681579590
1008.5000000000;99.3555908203
1009.0000000000;99.4543304443
1009.5000000000;99.3038177490
1010.0000000000;99.1632080078
1010.5000000000;99.2611465454
1011.0000000000;99.4015502930
1011.5000000000;99.3982467651
1012.0000000000;99.2484207153
1012.5000000000;99.2566070557
1013.0000000000;99.4636383057
1013.5000000000;99.6336822510
1014.0000000000;99.3685455322
1014.5000000000;99.0362472534
1015.0000000000;99.2499694824
1015.5000000000;99.3863525391
1016.0000000000;99.3630752563
1016.5000000000;99.6429061890
1017.0000000000;99.6618576050
1017.5000000000;99.3737487793
1018.0000000000;99.4544525146
1018.5000000000;99.3736801147
1019.0000000000;98.9496917725
1019.5000000000;98.9884490967
