182.5000000000;10.7363119125
183.0000000000;8.8393201828
183.5000000000;8.6607036591
184.0000000000;9.6555194855
184.5000000000;9.6075887680
185.0000000000;7.8348393440
185.5000000000;5.7852873802
186.0000000000;4.9267501831
186.5000000000;3.8803744316
187.0000000000;1.9903872013
187.5000000000;1.1183546782
188.0000000000;0.8445822597
188.5000000000;0.6321801543
189.0000000000;0.4502174854
189.5000000000;0.3549491465
190.0000000000;0.3091858327
190.5000000000;0.2989012599
191.0000000000;0.2528129816
191.5000000000;0.1561054289
192.0000000000;0.1276291460
192.5000000000;0.1774871647
193.0000000000;0.1911110282
193.5000000000;0.1580052674
194.0000000000;0.1387214810
194.5000000000;0.1376671046
195.0000000000;0.1432830840
195.5000000000;0.1319161355
196.0000000000;0.1129918694
196.5000000000;0.1158901155
197.0000000000;0.1222254187
197.5000000000;0.1099673659
198.0000000000;0.0958554894
198.5000000000;0.0905091465
199.0000000000;0.0893722400
199.5000000000;0.0869349092
200.0000000000;0.0795124173
200.5000000000;0.0692330822
201.0000000000;0.0608795285
201.5000000000;0.0607314482
202.0000000000;0.0635138080
202.5000000000;0.0586263835
203.0000000000;0.0532530323
203.5000000000;0.0546395481
204.0000000000;0.0553330109
204.5000000000;0.0533924326
205.0000000000;0.0551627390
205.5000000000;0.0582761392
206.0000000000;0.0576435886
206.5000000000;0.0596840642
207.0000000000;0.0665120780
207.5000000000;0.0671594217
208.0000000000;0.0638376102
208.5000000000;0.0684581846
209.0000000000;0.0737403780
209.5000000000;0.0713556856
210.0000000000;0.0696593150
210.5000000000;0.0724891722
211.0000000000;0.0756933764
211.5000000000;0.0771733150
212.0000000000;0.0760793984
212.5000000000;0.0714802071
213.0000000000;0.0665898994
213.5000000000;0.0694186538
214.0000000000;0.0746817067
214.5000000000;0.0713715553
215.0000000000;0.0625472069
215.5000000000;0.0548843518
216.0000000000;0.0538588651
216.5000000000;0.0557353161
217.0000000000;0.0515745245
217.5000000000;0.0475588739
218.0000000000;0.0497152992
218.5000000000;0.0492134541
219.0000000000;0.0443893485
219.5000000000;0.0433868580
220.0000000000;0.0456446856
220.5000000000;0.0468584374
221.0000000000;0.0470628776
221.5000000000;0.0461692326
222.0000000000;0.0424603485
222.5000000000;0.0397419669
223.0000000000;0.0442309678
223.5000000000;0.0484900065
224.0000000000;0.0457133465
224.5000000000;0.0438681394
225.0000000000;0.0463765450
225.5000000000;0.0489412807
226.0000000000;0.0516191684
226.5000000000;0.0549748503
227.0000000000;0.0520915836
227.5000000000;0.0445985347
228.0000000000;0.0492895395
228.5000000000;0.0616731048
229.0000000000;0.0643744692
229.5000000000;0.0611861721
230.0000000000;0.0597462878
230.5000000000;0.0608441792
231.0000000000;0.0616610534
231.5000000000;0.0583198257
232.0000000000;0.0575545430
232.5000000000;0.0644926876
233.0000000000;0.0674398765
233.5000000000;0.0633836016
234.0000000000;0.0624911934
234.5000000000;0.0642822310
235.0000000000;0.0630308166
235.5000000000;0.0574981086
236.0000000000;0.0513932146
236.5000000000;0.0536315888
237.0000000000;0.0597057939
237.5000000000;0.0582184866
238.0000000000;0.0542437546
238.5000000000;0.0540764481
239.0000000000;0.0553085022
239.5000000000;0.0562342852
240.0000000000;0.0568980202
240.5000000000;0.0571347177
241.0000000000;0.0564590171
241.5000000000;0.0538410097
242.0000000000;0.0503249578
242.5000000000;0.0494480319
243.0000000000;0.0511225127
243.5000000000;0.0531440116
244.0000000000;0.0540207550
244.5000000000;0.0543322377
245.0000000000;0.0576866120
245.5000000000;0.0609681271
246.0000000000;0.0570487455
246.5000000000;0.0516121127
247.0000000000;0.0521167815
247.5000000000;0.0571945608
248.0000000000;0.0612459891
248.5000000000;0.0567491576
249.0000000000;0.0508508943
249.5000000000;0.0546211638
250.0000000000;0.0620924905
250.5000000000;0.0667199865
251.0000000000;0.0679232776
251.5000000000;0.0673413202
252.0000000000;0.0681953505
252.5000000000;0.0746646971
253.0000000000;0.0855451599
253.5000000000;0.0877497047
254.0000000000;0.0797192454
254.5000000000;0.0723323077
255.0000000000;0.0711006224
255.5000000000;0.0779335722
256.0000000000;0.0913187787
256.5000000000;0.1025134996
257.0000000000;0.0972890705
257.5000000000;0.0875200778
258.0000000000;0.0920718908
258.5000000000;0.0985997319
259.0000000000;0.0985069424
259.5000000000;0.1009211242
260.0000000000;0.1072540879
260.5000000000;0.1127436459
261.0000000000;0.1161420047
261.5000000000;0.1182393432
262.0000000000;0.1217446625
262.5000000000;0.1320053041
263.0000000000;0.1542081237
263.5000000000;0.1778851599
264.0000000000;0.1958780438
264.5000000000;0.2265888005
265.0000000000;0.2696768045
265.5000000000;0.3001430631
266.0000000000;0.3170504868
266.5000000000;0.3327777982
267.0000000000;0.3578642607
267.5000000000;0.3895479441
268.0000000000;0.4075517356
268.5000000000;0.4155862331
269.0000000000;0.4304945171
269.5000000000;0.4478074610
270.0000000000;0.4599538445
270.5000000000;0.4665675759
271.0000000000;0.4792467356
271.5000000000;0.5136030316
272.0000000000;0.5445227623
272.5000000000;0.5507226586
273.0000000000;0.5659869313
273.5000000000;0.6035808921
274.0000000000;0.6427128911
274.5000000000;0.6768155694
275.0000000000;0.7089723945
275.5000000000;0.7454088926
276.0000000000;0.7891071439
276.5000000000;0.8363192677
277.0000000000;0.8823009133
277.5000000000;0.9230728149
278.0000000000;0.9599746466
278.5000000000;0.9976919889
279.0000000000;1.0439532995
279.5000000000;1.0940831900
280.0000000000;1.1347477436
280.5000000000;1.1826741695
281.0000000000;1.2537561655
281.5000000000;1.3219821453
282.0000000000;1.3802913427
282.5000000000;1.4530910254
283.0000000000;1.5358853340
283.5000000000;1.6125000715
284.0000000000;1.6896519661
284.5000000000;1.7740168571
285.0000000000;1.8638701439
285.5000000000;1.9540375471
286.0000000000;2.0389513969
286.5000000000;2.1257417202
287.0000000000;2.2177023888
287.5000000000;2.3030328751
288.0000000000;2.3816061020
288.5000000000;2.4633491039
289.0000000000;2.5498018265
289.5000000000;2.6351382732
290.0000000000;2.7035021782
290.5000000000;2.7529525757
291.0000000000;2.7988340855
291.5000000000;2.8560988903
292.0000000000;2.9300158024
292.5000000000;2.9963846207
293.0000000000;3.0426928997
293.5000000000;3.0809679031
294.0000000000;3.1224851608
294.5000000000;3.1713187695
295.0000000000;3.2084696293
295.5000000000;3.2310185432
296.0000000000;3.2720594406
296.5000000000;3.3233096600
297.0000000000;3.3495042324
297.5000000000;3.3651235104
298.0000000000;3.3922858238
298.5000000000;3.4302000999
299.0000000000;3.4632885456
299.5000000000;3.4699170589
300.0000000000;3.4694244862
300.5000000000;3.4857342243
301.0000000000;3.5034615993
301.5000000000;3.5112404823
302.0000000000;3.5123674870
302.5000000000;3.5158765316
303.0000000000;3.5282647610
303.5000000000;3.5367510319
304.0000000000;3.5326952934
304.5000000000;3.5216641426
305.0000000000;3.5175099373
305.5000000000;3.5303165913
306.0000000000;3.5273041725
306.5000000000;3.4951810837
307.0000000000;3.4838449955
307.5000000000;3.4945497513
308.0000000000;3.4857323170
308.5000000000;3.4658229351
309.0000000000;3.4549984932
309.5000000000;3.4506425858
310.0000000000;3.4431312084
310.5000000000;3.4215261936
311.0000000000;3.3979041576
311.5000000000;3.3884460926
312.0000000000;3.3819277287
312.5000000000;3.3684496880
313.0000000000;3.3491024971
313.5000000000;3.3313896656
314.0000000000;3.3230423927
314.5000000000;3.3162755966
315.0000000000;3.3012590408
315.5000000000;3.2735819817
316.0000000000;3.2480139732
316.5000000000;3.2472341061
317.0000000000;3.2482609749
317.5000000000;3.2293286324
318.0000000000;3.2111260891
318.5000000000;3.2054231167
319.0000000000;3.2071807384
319.5000000000;3.2045505047
320.0000000000;3.1884753704
320.5000000000;3.1673500538
321.0000000000;3.1536319256
321.5000000000;3.1579666138
322.0000000000;3.1640160084
322.5000000000;3.1500070095
323.0000000000;3.1343200207
323.5000000000;3.1313996315
324.0000000000;3.1331477165
324.5000000000;3.1288943291
325.0000000000;3.1129996777
325.5000000000;3.1063606739
326.0000000000;3.1193311214
326.5000000000;3.1261892319
327.0000000000;3.1222760677
327.5000000000;3.1226301193
328.0000000000;3.1251614094
328.5000000000;3.1250507832
329.0000000000;3.1274757385
329.5000000000;3.1369056702
330.0000000000;3.1524055004
330.5000000000;3.1504971981
331.0000000000;3.1184689999
331.5000000000;3.1067280769
332.0000000000;3.1310997009
332.5000000000;3.1500952244
333.0000000000;3.1580159664
333.5000000000;3.1644918919
334.0000000000;3.1512696743
334.5000000000;3.1266167164
335.0000000000;3.1441993713
335.5000000000;3.1754467487
336.0000000000;3.1554632187
336.5000000000;3.1342082024
337.0000000000;3.1497337818
337.5000000000;3.1551315784
338.0000000000;3.1409282684
338.5000000000;3.1338193417
339.0000000000;3.1426980495
339.5000000000;3.1582942009
340.0000000000;3.1469969749
340.5000000000;3.1129758358
341.0000000000;3.0961565971
341.5000000000;3.0959525108
342.0000000000;3.0936386585
342.5000000000;3.0721893311
343.0000000000;3.0404512882
343.5000000000;3.0319554806
344.0000000000;3.0298841000
344.5000000000;3.0081384182
345.0000000000;3.0027070045
345.5000000000;3.0182952881
346.0000000000;3.0010795593
346.5000000000;2.9615323544
347.0000000000;2.9408223629
347.5000000000;2.9252350330
348.0000000000;2.9012806416
348.5000000000;2.8795909882
349.0000000000;2.8510146141
349.5000000000;2.7993664742
350.0000000000;2.7588801384
350.5000000000;2.7492597103
351.0000000000;2.7282001972
351.5000000000;2.6850063801
352.0000000000;2.6427063942
352.5000000000;2.6126155853
353.0000000000;2.5931885242
353.5000000000;2.5642089844
354.0000000000;2.5215084553
354.5000000000;2.4801719189
355.0000000000;2.4455838203
355.5000000000;2.4155147076
356.0000000000;2.3805105686
356.5000000000;2.3372299671
357.0000000000;2.2921042442
357.5000000000;2.2529454231
358.0000000000;2.2242333889
358.5000000000;2.1972193718
359.0000000000;2.1614890099
359.5000000000;2.1126077175
360.0000000000;2.0643563271
360.5000000000;2.0356240273
361.0000000000;1.9897010326
361.5000000000;1.9126789570
362.0000000000;1.8558775187
362.5000000000;1.8216313124
363.0000000000;1.7709542513
363.5000000000;1.7197480202
364.0000000000;1.6865706444
364.5000000000;1.6533428431
365.0000000000;1.6146748066
365.5000000000;1.5790715218
366.0000000000;1.5414663553
366.5000000000;1.4964807034
367.0000000000;1.4487568140
367.5000000000;1.4043319225
368.0000000000;1.3698513508
368.5000000000;1.3403894901
369.0000000000;1.3072757721
369.5000000000;1.2701252699
370.0000000000;1.2353101969
370.5000000000;1.2139911652
371.0000000000;1.1950892210
371.5000000000;1.1609981060
372.0000000000;1.1216639280
372.5000000000;1.0865126848
373.0000000000;1.0543261766
373.5000000000;1.0261808634
374.0000000000;1.0029451847
374.5000000000;0.9741060138
375.0000000000;0.9377743602
375.5000000000;0.9125928879
376.0000000000;0.8975743055
376.5000000000;0.8769066334
377.0000000000;0.8495187759
377.5000000000;0.8211477995
378.0000000000;0.7986568213
378.5000000000;0.7791723013
379.0000000000;0.7549998164
379.5000000000;0.7374543548
380.0000000000;0.7305658460
380.5000000000;0.7046869397
381.0000000000;0.6607401371
381.5000000000;0.6352234483
382.0000000000;0.6425343752
382.5000000000;0.6713129878
383.0000000000;0.6717368960
383.5000000000;0.6352953315
384.0000000000;0.6084477901
384.5000000000;0.6001090407
385.0000000000;0.5969953537
385.5000000000;0.5936842561
386.0000000000;0.5859041214
386.5000000000;0.5697597265
387.0000000000;0.5544676781
387.5000000000;0.5512922406
388.0000000000;0.5487477183
388.5000000000;0.5439428687
389.0000000000;0.5544302464
389.5000000000;0.5654056072
390.0000000000;0.5492522717
390.5000000000;0.5443696976
391.0000000000;0.5682219863
391.5000000000;0.5658033490
392.0000000000;0.5376533866
392.5000000000;0.5274155736
393.0000000000;0.5385913253
393.5000000000;0.5558162332
394.0000000000;0.5525211692
394.5000000000;0.5331039429
395.0000000000;0.5276353955
395.5000000000;0.5444710255
396.0000000000;0.5697156787
396.5000000000;0.5577562451
397.0000000000;0.5264441967
397.5000000000;0.5468009114
398.0000000000;0.5772044063
398.5000000000;0.5631451607
399.0000000000;0.5450530052
399.5000000000;0.5511158109
400.0000000000;0.5762716532
400.5000000000;0.5910800099
401.0000000000;0.5755407214
401.5000000000;0.5783875585
402.0000000000;0.6122118235
402.5000000000;0.6287280917
403.0000000000;0.6191474199
403.5000000000;0.6034460664
404.0000000000;0.6152792573
404.5000000000;0.6530542970
405.0000000000;0.6669973135
405.5000000000;0.6692431569
406.0000000000;0.6952754259
406.5000000000;0.7171840668
407.0000000000;0.7191364169
407.5000000000;0.7285453081
408.0000000000;0.7467195392
408.5000000000;0.7601953149
409.0000000000;0.7926769853
409.5000000000;0.8483858109
410.0000000000;0.8787142038
410.5000000000;0.8883801699
411.0000000000;0.9180827141
411.5000000000;0.9514822960
412.0000000000;0.9690304399
412.5000000000;0.9845520854
413.0000000000;1.0144691467
413.5000000000;1.0693488121
414.0000000000;1.1238912344
414.5000000000;1.1593086720
415.0000000000;1.2082521915
415.5000000000;1.2678092718
416.0000000000;1.3062814474
416.5000000000;1.3516345024
417.0000000000;1.4294948578
417.5000000000;1.5039221048
418.0000000000;1.5578473806
418.5000000000;1.6054385900
419.0000000000;1.6766995192
419.5000000000;1.7820791006
420.0000000000;1.8680199385
420.5000000000;1.9260777235
421.0000000000;2.0011930466
421.5000000000;2.0876040459
422.0000000000;2.1700263023
422.5000000000;2.2690546513
423.0000000000;2.3841352463
423.5000000000;2.4885993004
424.0000000000;2.5942423344
424.5000000000;2.7260265350
425.0000000000;2.8567183018
425.5000000000;2.9688756466
426.0000000000;3.1026844978
426.5000000000;3.2615947723
427.0000000000;3.4094462395
427.5000000000;3.5448567867
428.0000000000;3.6890633106
428.5000000000;3.8516821861
429.0000000000;4.0259943008
429.5000000000;4.1914901733
430.0000000000;4.3589034081
430.5000000000;4.5458722115
431.0000000000;4.7444286346
431.5000000000;4.9472155571
432.0000000000;5.1514124870
432.5000000000;5.3752279282
433.0000000000;5.6199660301
433.5000000000;5.8353562355
434.0000000000;6.0209646225
434.5000000000;6.2435312271
435.0000000000;6.5113296509
435.5000000000;6.7783770561
436.0000000000;7.0356693268
436.5000000000;7.2873268127
437.0000000000;7.5315308571
437.5000000000;7.7980990410
438.0000000000;8.0984535217
438.5000000000;8.3869380951
439.0000000000;8.6625175476
439.5000000000;8.9622297287
440.0000000000;9.2698526382
440.5000000000;9.5666599274
441.0000000000;9.8677682877
441.5000000000;10.1649589539
442.0000000000;10.4839944839
442.5000000000;10.8336944580
443.0000000000;11.1744718552
443.5000000000;11.5042276382
444.0000000000;11.8332595825
444.5000000000;12.1726922989
445.0000000000;12.5225210190
445.5000000000;12.8777990341
446.0000000000;13.2315368652
446.5000000000;13.5862779617
447.0000000000;13.9640970230
447.5000000000;14.3614702225
448.0000000000;14.7509555817
448.5000000000;15.1173915863
449.0000000000;15.4731407166
449.5000000000;15.8534736633
450.0000000000;16.2542476654
450.5000000000;16.6561374664
451.0000000000;17.0602016449
451.5000000000;17.4670696259
452.0000000000;17.8756580353
452.5000000000;18.2833747864
453.0000000000;18.6914939880
453.5000000000;19.1065273285
454.0000000000;19.5290050507
454.5000000000;19.9536209106
455.0000000000;20.3805980682
455.5000000000;20.8112888336
456.0000000000;21.2327804565
456.5000000000;21.6493587494
457.0000000000;22.0863056183
457.5000000000;22.5292034149
458.0000000000;22.9517326355
458.5000000000;23.3629550934
459.0000000000;23.7919464111
459.5000000000;24.2486419678
460.0000000000;24.7155456543
460.5000000000;25.1814117432
461.0000000000;25.6521110535
461.5000000000;26.1145915985
462.0000000000;26.5637321472
462.5000000000;27.0080528259
463.0000000000;27.4314651489
463.5000000000;27.8614711761
464.0000000000;28.3351039886
464.5000000000;28.8028926849
465.0000000000;29.2468795776
465.5000000000;29.7036399841
466.0000000000;30.1825828552
466.5000000000;30.6702556610
467.0000000000;31.1496906281
467.5000000000;31.6166572571
468.0000000000;32.0759124756
468.5000000000;32.5436668396
469.0000000000;33.0412750244
469.5000000000;33.5456161499
470.0000000000;34.0320129395
470.5000000000;34.4968147278
471.0000000000;34.9516220093
471.5000000000;35.4117202759
472.0000000000;35.8807487488
472.5000000000;36.3504219055
473.0000000000;36.8045196533
473.5000000000;37.2500801086
474.0000000000;37.7195472717
474.5000000000;38.2191619873
475.0000000000;38.7083473206
475.5000000000;39.1573638916
476.0000000000;39.5914001465
476.5000000000;40.0386848450
477.0000000000;40.5032730103
477.5000000000;40.9773216248
478.0000000000;41.4393081665
478.5000000000;41.8895492554
479.0000000000;42.3501091003
479.5000000000;42.8083572388
480.0000000000;43.2449989319
480.5000000000;43.6746711731
481.0000000000;44.1088790894
481.5000000000;44.5483894348
482.0000000000;44.9941291809
482.5000000000;45.4338760376
483.0000000000;45.8510589600
483.5000000000;46.2706871033
484.0000000000;46.6868820190
484.5000000000;47.0392608643
485.0000000000;47.4630966187
485.5000000000;48.0009880066
486.0000000000;48.2940673828
486.5000000000;48.3825454712
487.0000000000;48.7518730164
487.5000000000;49.4397430420
488.0000000000;49.9448356628
488.5000000000;50.3120651245
489.0000000000;50.7364234924
489.5000000000;51.1146316528
490.0000000000;51.4380531311
490.5000000000;51.8130569458
491.0000000000;52.2103691101
491.5000000000;52.5820274353
492.0000000000;52.9587440491
492.5000000000;53.3221321106
493.0000000000;53.6285476685
493.5000000000;53.9452362061
494.0000000000;54.3354873657
494.5000000000;54.7443237305
495.0000000000;55.1257781982
495.5000000000;55.4748573303
496.0000000000;55.7958755493
496.5000000000;56.0946388245
497.0000000000;56.3925971985
497.5000000000;56.7131843567
498.0000000000;57.0479469299
498.5000000000;57.3492202759
499.0000000000;57.6114692688
499.5000000000;57.9117469788
500.0000000000;58.2490005493
500.5000000000;58.5476493835
501.0000000000;58.8106155396
501.5000000000;59.0687561035
502.0000000000;59.3518333435
502.5000000000;59.6587524414
503.0000000000;59.9507446289
503.5000000000;60.2355346680
504.0000000000;60.5251922607
504.5000000000;60.7832565308
505.0000000000;61.0170326233
505.5000000000;61.2701835632
506.0000000000;61.5332450867
506.5000000000;61.7906990051
507.0000000000;62.0449142456
507.5000000000;62.2873229980
508.0000000000;62.5025901794
508.5000000000;62.7342185974
509.0000000000;63.0109405518
509.5000000000;63.2719650269
510.0000000000;63.4900474548
510.5000000000;63.6864395142
511.0000000000;63.8955497742
511.5000000000;64.1264114380
512.0000000000;64.3401870728
512.5000000000;64.5407638550
513.0000000000;64.7587661743
513.5000000000;64.9908294678
514.0000000000;65.2203598022
514.5000000000;65.4237747192
515.0000000000;65.6165008545
515.5000000000;65.8321685791
516.0000000000;66.0474243164
516.5000000000;66.2423706055
517.0000000000;66.4275817871
517.5000000000;66.6097869873
518.0000000000;66.7922592163
518.5000000000;66.9777297974
519.0000000000;67.1628952026
519.5000000000;67.3376541138
520.0000000000;67.5121154785
520.5000000000;67.7030715942
521.0000000000;67.8877639771
521.5000000000;68.0554275513
522.0000000000;68.2377548218
522.5000000000;68.4243850708
523.0000000000;68.5830688477
523.5000000000;68.7439956665
524.0000000000;68.9246063232
524.5000000000;69.0931091309
525.0000000000;69.2428054810
525.5000000000;69.3874130249
526.0000000000;69.5397186279
526.5000000000;69.6980667114
527.0000000000;69.8426132202
527.5000000000;69.9823684692
528.0000000000;70.1381683350
528.5000000000;70.3042068481
529.0000000000;70.4658279419
529.5000000000;70.6091918945
530.0000000000;70.7387695313
530.5000000000;70.8690795898
531.0000000000;71.0145416260
531.5000000000;71.1725997925
532.0000000000;71.3197555542
532.5000000000;71.4526748657
533.0000000000;71.5781402588
533.5000000000;71.6984481812
534.0000000000;71.8204956055
534.5000000000;71.9550476074
535.0000000000;72.0955810547
535.5000000000;72.2297210693
536.0000000000;72.3585891724
536.5000000000;72.4880905151
537.0000000000;72.6230850220
537.5000000000;72.7539596558
538.0000000000;72.8703155518
538.5000000000;72.9797210693
539.0000000000;73.0930633545
539.5000000000;73.2184371948
540.0000000000;73.3491516113
540.5000000000;73.4758987427
541.0000000000;73.6021728516
541.5000000000;73.7226867676
542.0000000000;73.8236389160
542.5000000000;73.9240112305
543.0000000000;74.0472717285
543.5000000000;74.1834945679
544.0000000000;74.3172988892
544.5000000000;74.4388961792
545.0000000000;74.5465469360
545.5000000000;74.6483764648
546.0000000000;74.7677993774
546.5000000000;74.8972091675
547.0000000000;75.0041046143
547.5000000000;75.0904083252
548.0000000000;75.1737899780
548.5000000000;75.2771148682
549.0000000000;75.4038238525
549.5000000000;75.5363540649
550.0000000000;75.6543502808
550.5000000000;75.7554397583
551.0000000000;75.8684616089
551.5000000000;75.9874038696
552.0000000000;76.0840072632
552.5000000000;76.1812896729
553.0000000000;76.2941741943
553.5000000000;76.3905410767
554.0000000000;76.4756774902
554.5000000000;76.5804824829
555.0000000000;76.6935424805
555.5000000000;76.7969436646
556.0000000000;76.8895111084
556.5000000000;76.9846954346
557.0000000000;77.0949249268
557.5000000000;77.1979980469
558.0000000000;77.2864151001
558.5000000000;77.3872833252
559.0000000000;77.5009460449
559.5000000000;77.6095275879
560.0000000000;77.7049713135
560.5000000000;77.7909240723
561.0000000000;77.8806838989
561.5000000000;77.9738006592
562.0000000000;78.0648880005
562.5000000000;78.1610488892
563.0000000000;78.2647476196
563.5000000000;78.3691482544
564.0000000000;78.4654541016
564.5000000000;78.5496902466
565.0000000000;78.6357040405
565.5000000000;78.7331848145
566.0000000000;78.8401031494
566.5000000000;78.9371871948
567.0000000000;79.0065917969
567.5000000000;79.0581359863
568.0000000000;79.1003875732
568.5000000000;79.1343231201
569.0000000000;79.1729049683
569.5000000000;79.2217178345
570.0000000000;79.2661895752
570.5000000000;79.3418731689
571.0000000000;79.5012741089
571.5000000000;79.6209182739
572.0000000000;79.6313247681
572.5000000000;79.6712722778
573.0000000000;79.7460174561
573.5000000000;79.7852935791
574.0000000000;79.8152770996
574.5000000000;79.8700332642
575.0000000000;79.9349746704
575.5000000000;80.0099868774
576.0000000000;80.1181259155
576.5000000000;80.2979660034
577.0000000000;80.4855804443
577.5000000000;80.4664840698
578.0000000000;80.3997726440
578.5000000000;80.5787963867
579.0000000000;80.8818511963
579.5000000000;81.0831069946
580.0000000000;81.0400085449
580.5000000000;80.9081954956
581.0000000000;80.8938446045
581.5000000000;80.8005676270
582.0000000000;80.6520385742
582.5000000000;80.7494430542
583.0000000000;81.0163726807
583.5000000000;81.1779174805
584.0000000000;81.1738052368
584.5000000000;81.1128692627
585.0000000000;81.1671600342
585.5000000000;81.2959823608
586.0000000000;81.4073944092
586.5000000000;81.5204315186
587.0000000000;81.6245040894
587.5000000000;81.6717147827
588.0000000000;81.6858825684
588.5000000000;81.7203140259
589.0000000000;81.8315277100
589.5000000000;82.0039672852
590.0000000000;82.1503753662
590.5000000000;82.2459487915
591.0000000000;82.3070144653
591.5000000000;82.3656311035
592.0000000000;82.4421691895
592.5000000000;82.5308914185
593.0000000000;82.5775985718
593.5000000000;82.5975189209
594.0000000000;82.7090682983
594.5000000000;82.8474502563
595.0000000000;82.8894958496
595.5000000000;82.9520645142
596.0000000000;83.0973052979
596.5000000000;83.2305374146
597.0000000000;83.3200302124
597.5000000000;83.3932495117
598.0000000000;83.4952239990
598.5000000000;83.6208953857
599.0000000000;83.7071075439
599.5000000000;83.7823028564
600.0000000000;83.8840866089
600.5000000000;83.9480361938
601.0000000000;83.9686965942
601.5000000000;84.0120925903
602.0000000000;84.0980377197
602.5000000000;84.2046661377
603.0000000000;84.2677154541
603.5000000000;84.2979202271
604.0000000000;84.3632736206
604.5000000000;84.4717941284
605.0000000000;84.5850448608
605.5000000000;84.6478347778
606.0000000000;84.6721420288
606.5000000000;84.7035598755
607.0000000000;84.7491531372
607.5000000000;84.8003311157
608.0000000000;84.8397064209
608.5000000000;84.8828048706
609.0000000000;84.9452819824
609.5000000000;84.9659194946
610.0000000000;84.9439392090
610.5000000000;84.9662399292
611.0000000000;85.0141448975
611.5000000000;85.0379638672
612.0000000000;85.0634307861
612.5000000000;85.0961990356
613.0000000000;85.1092300415
613.5000000000;85.1156997681
614.0000000000;85.1376342773
614.5000000000;85.1748428345
615.0000000000;85.2114486694
615.5000000000;85.2270736694
616.0000000000;85.2556686401
616.5000000000;85.3221588135
617.0000000000;85.3902130127
617.5000000000;85.4244766235
618.0000000000;85.4165420532
618.5000000000;85.4197845459
619.0000000000;85.4556121826
619.5000000000;85.4695892334
620.0000000000;85.4741592407
620.5000000000;85.5162582397
621.0000000000;85.5997848511
621.5000000000;85.6785736084
622.0000000000;85.6739425659
622.5000000000;85.6530761719
623.0000000000;85.7067947388
623.5000000000;85.7829437256
624.0000000000;85.8426971436
624.5000000000;85.8932113647
625.0000000000;85.9672012329
625.5000000000;86.0701599121
626.0000000000;86.1242523193
626.5000000000;86.1379547119
627.0000000000;86.1876907349
627.5000000000;86.2357940674
628.0000000000;86.2589492798
628.5000000000;86.3281555176
629.0000000000;86.4216156006
629.5000000000;86.4693298340
630.0000000000;86.5148239136
630.5000000000;86.5942535400
631.0000000000;86.6835861206
631.5000000000;86.7549438477
632.0000000000;86.7935714722
632.5000000000;86.8213577271
633.0000000000;86.8580169678
633.5000000000;86.9093704224
634.0000000000;86.9667663574
634.5000000000;87.0187530518
635.0000000000;87.0643997192
635.5000000000;87.1027221680
636.0000000000;87.1330261230
636.5000000000;87.1650543213
637.0000000000;87.2035217285
637.5000000000;87.2351303101
638.0000000000;87.2694473267
638.5000000000;87.3275299072
639.0000000000;87.3839263916
639.5000000000;87.4184112549
640.0000000000;87.4437255859
640.5000000000;87.4710159302
641.0000000000;87.5062103271
641.5000000000;87.5465087891
642.0000000000;87.5843963623
642.5000000000;87.6107025146
643.0000000000;87.6259307861
643.5000000000;87.6382064819
644.0000000000;87.6627197266
644.5000000000;87.6969528198
645.0000000000;87.7206878662
645.5000000000;87.7328948975
646.0000000000;87.7425231934
646.5000000000;87.7610473633
647.0000000000;87.7866744995
647.5000000000;87.8079833984
648.0000000000;87.8231582642
648.5000000000;87.8343734741
649.0000000000;87.8456039429
649.5000000000;87.8627395630
650.0000000000;87.8896942139
650.5000000000;87.9179077148
651.0000000000;87.9383087158
651.5000000000;87.9469833374
652.0000000000;87.9534149170
652.5000000000;87.9697189331
653.0000000000;87.9958953857
653.5000000000;88.0249099731
654.0000000000;88.0435638428
654.5000000000;88.0471115112
655.0000000000;88.0195159912
655.5000000000;87.9505844116
656.0000000000;87.6823806763
656.5000000000;86.8371658325
657.0000000000;86.0764083862
657.5000000000;87.5028610229
658.0000000000;88.4958801270
658.5000000000;88.2857131958
659.0000000000;88.3168334961
659.5000000000;88.4678955078
660.0000000000;88.5081939697
660.5000000000;88.5422439575
661.0000000000;88.5834655762
661.5000000000;88.6133728027
662.0000000000;88.6783599854
662.5000000000;88.7622604370
663.0000000000;88.7931213379
663.5000000000;88.8054428101
664.0000000000;88.8463973999
664.5000000000;88.9060745239
665.0000000000;88.9685211182
665.5000000000;89.0245819092
666.0000000000;89.0888366699
666.5000000000;89.1625442505
667.0000000000;89.2183990479
667.5000000000;89.2566070557
668.0000000000;89.2936935425
668.5000000000;89.3390197754
669.0000000000;89.3860931396
669.5000000000;89.4165115356
670.0000000000;89.4458694458
670.5000000000;89.4914398193
671.0000000000;89.5383377075
671.5000000000;89.5812149048
672.0000000000;89.6260528564
672.5000000000;89.6698226929
673.0000000000;89.7096176147
673.5000000000;89.7479324341
674.0000000000;89.7856597900
674.5000000000;89.8231048584
675.0000000000;89.8633804321
675.5000000000;89.9030761719
676.0000000000;89.9322280884
676.5000000000;89.9641647339
677.0000000000;90.0116043091
677.5000000000;90.0534286499
678.0000000000;90.0821151733
678.5000000000;90.1087265015
679.0000000000;90.1369094849
679.5000000000;90.1637573242
680.0000000000;90.1821136475
680.5000000000;90.2053833008
681.0000000000;90.2504119873
681.5000000000;90.2828598022
682.0000000000;90.2912902832
682.5000000000;90.3139343262
683.0000000000;90.3516464233
683.5000000000;90.3842391968
684.0000000000;90.3997650146
684.5000000000;90.3883209229
685.0000000000;90.3491287231
685.5000000000;90.3395233154
686.0000000000;90.3951339722
686.5000000000;90.4547195435
687.0000000000;90.4837493896
687.5000000000;90.4877929688
688.0000000000;90.5006942749
688.5000000000;90.5341415405
689.0000000000;90.5544509888
689.5000000000;90.5541610718
690.0000000000;90.5458374023
690.5000000000;90.5466461182
691.0000000000;90.5567321777
691.5000000000;90.5596008301
692.0000000000;90.5677261353
692.5000000000;90.5917358398
693.0000000000;90.6093750000
693.5000000000;90.6239318848
694.0000000000;90.6566314697
694.5000000000;90.6879882813
695.0000000000;90.7053451538
695.5000000000;90.7280807495
696.0000000000;90.7564392090
696.5000000000;90.7770462036
697.0000000000;90.7801284790
697.5000000000;90.7827911377
698.0000000000;90.8245468140
698.5000000000;90.8809814453
699.0000000000;90.9185028076
699.5000000000;90.9543762207
700.0000000000;90.9895858765
700.5000000000;91.0113906860
701.0000000000;91.0434646606
701.5000000000;91.0931167603
702.0000000000;91.1236801147
702.5000000000;91.1397781372
703.0000000000;91.1700820923
703.5000000000;91.2254867554
704.0000000000;91.2867202759
704.5000000000;91.3127899170
705.0000000000;91.3312149048
705.5000000000;91.3725433350
706.0000000000;91.4021911621
706.5000000000;91.4135131836
707.0000000000;91.4297943115
707.5000000000;91.4618225098
708.0000000000;91.5107192993
708.5000000000;91.5679168701
709.0000000000;91.6265335083
709.5000000000;91.6814956665
710.0000000000;91.7250595093
710.5000000000;91.7609634399
711.0000000000;91.8050308228
711.5000000000;91.8510360718
712.0000000000;91.8854980469
712.5000000000;91.9035263062
713.0000000000;91.9211349487
713.5000000000;91.9613037109
714.0000000000;92.0065383911
714.5000000000;92.0437622070
715.0000000000;92.0830001831
715.5000000000;92.1249618530
716.0000000000;92.1681137085
716.5000000000;92.2199478149
717.0000000000;92.2781600952
717.5000000000;92.3300399780
718.0000000000;92.3731918335
718.5000000000;92.4106750488
719.0000000000;92.4476165771
719.5000000000;92.4937286377
720.0000000000;92.5549087524
720.5000000000;92.6047897339
721.0000000000;92.6352767944
721.5000000000;92.6744842529
722.0000000000;92.7222366333
722.5000000000;92.7662811279
723.0000000000;92.8054504395
723.5000000000;92.8367538452
724.0000000000;92.8582458496
724.5000000000;92.8884582520
725.0000000000;92.9273452759
725.5000000000;92.9328994751
726.0000000000;92.9264144897
726.5000000000;92.9562530518
727.0000000000;93.0041198730
727.5000000000;93.0501480103
728.0000000000;93.0930328369
728.5000000000;93.1287689209
729.0000000000;93.1571960449
729.5000000000;93.1910324097
730.0000000000;93.2207565308
730.5000000000;93.2234344482
731.0000000000;93.2166061401
731.5000000000;93.2262954712
732.0000000000;93.2687988281
732.5000000000;93.3255233765
733.0000000000;93.3644332886
733.5000000000;93.3784637451
734.0000000000;93.3756484985
734.5000000000;93.3728027344
735.0000000000;93.3742141724
735.5000000000;93.3849945068
736.0000000000;93.4201736450
736.5000000000;93.4617767334
737.0000000000;93.4792098999
737.5000000000;93.4983139038
738.0000000000;93.5384674072
738.5000000000;93.5861663818
739.0000000000;93.6079330444
739.5000000000;93.5861740112
740.0000000000;93.5612792969
740.5000000000;93.5657272339
741.0000000000;93.6078643799
741.5000000000;93.6453018188
742.0000000000;93.6547622681
742.5000000000;93.6723861694
743.0000000000;93.6983642578
743.5000000000;93.7128067017
744.0000000000;93.7168502808
744.5000000000;93.7206802368
745.0000000000;93.7363204956
745.5000000000;93.7540512085
746.0000000000;93.7644119263
746.5000000000;93.7763900757
747.0000000000;93.7814559937
747.5000000000;93.7691726685
748.0000000000;93.7792358398
748.5000000000;93.8155288696
749.0000000000;93.8250579834
749.5000000000;93.8326187134
750.0000000000;93.8645477295
750.5000000000;93.8557586670
751.0000000000;93.8323898315
751.5000000000;93.8832931519
752.0000000000;93.9381637573
752.5000000000;93.9383316040
753.0000000000;93.9256668091
753.5000000000;93.9148788452
754.0000000000;93.9105987549
754.5000000000;93.9510498047
755.0000000000;94.0175399780
755.5000000000;94.0366744995
756.0000000000;94.0182418823
756.5000000000;93.9959259033
757.0000000000;93.9856109619
757.5000000000;93.9903793335
758.0000000000;94.0063858032
758.5000000000;94.0308456421
759.0000000000;94.0626296997
759.5000000000;94.1020050049
760.0000000000;94.1489868164
760.5000000000;94.1958007813
761.0000000000;94.2186660767
761.5000000000;94.2478408813
762.0000000000;94.3310546875
762.5000000000;94.3921203613
763.0000000000;94.3865432739
763.5000000000;94.3659362793
764.0000000000;94.3780364990
764.5000000000;94.4345321655
765.0000000000;94.4703445435
765.5000000000;94.4926834106
766.0000000000;94.5645980835
766.5000000000;94.6527404785
767.0000000000;94.7108001709
767.5000000000;94.7237167358
768.0000000000;94.7012863159
768.5000000000;94.6692581177
769.0000000000;94.6599273682
769.5000000000;94.6934127808
770.0000000000;94.7708129883
770.5000000000;94.8505859375
771.0000000000;94.8988342285
771.5000000000;94.9302673340
772.0000000000;94.9736557007
772.5000000000;95.0435867310
773.0000000000;95.0952377319
773.5000000000;95.1110992432
774.0000000000;95.1188735962
774.5000000000;95.1614685059
775.0000000000;95.2433929443
775.5000000000;95.2865676880
776.0000000000;95.2911376953
776.5000000000;95.3069992065
777.0000000000;95.3350448608
777.5000000000;95.3642349243
778.0000000000;95.3850936890
778.5000000000;95.4012832642
779.0000000000;95.4133911133
779.5000000000;95.4056396484
780.0000000000;95.4048385620
780.5000000000;95.4505310059
781.0000000000;95.4947662354
781.5000000000;95.5107192993
782.0000000000;95.5281448364
782.5000000000;95.5438995361
783.0000000000;95.5519943237
783.5000000000;95.5800933838
784.0000000000;95.6334991455
784.5000000000;95.6925582886
785.0000000000;95.7250900269
785.5000000000;95.7288513184
786.0000000000;95.7464675903
786.5000000000;95.7819137573
787.0000000000;95.8177719116
787.5000000000;95.8386001587
788.0000000000;95.8438720703
788.5000000000;95.8453598022
789.0000000000;95.8542480469
789.5000000000;95.8729476929
790.0000000000;95.8917999268
790.5000000000;95.9089050293
791.0000000000;95.9284591675
791.5000000000;95.9575653076
792.0000000000;95.9906921387
792.5000000000;96.0146026611
793.0000000000;96.0388031006
793.5000000000;96.0518035889
794.0000000000;96.0096206665
794.5000000000;95.9702529907
795.0000000000;96.0053024292
795.5000000000;96.0694198608
796.0000000000;96.1224746704
796.5000000000;96.1512527466
797.0000000000;96.1601181030
797.5000000000;96.1561813354
798.0000000000;96.1428527832
798.5000000000;96.1375045776
799.0000000000;96.1553115845
799.5000000000;96.1810760498
800.0000000000;96.1963043213
800.5000000000;96.1915206909
801.0000000000;96.1937255859
801.5000000000;96.2157745361
802.0000000000;96.2319869995
802.5000000000;96.2487258911
803.0000000000;96.2806549072
803.5000000000;96.3084335327
804.0000000000;96.3181152344
804.5000000000;96.3112182617
805.0000000000;96.3149566650
805.5000000000;96.3303070068
806.0000000000;96.3099517822
806.5000000000;96.2833404541
807.0000000000;96.3014297485
807.5000000000;96.3445434570
808.0000000000;96.3690414429
808.5000000000;96.3421478271
809.0000000000;96.3380966187
809.5000000000;96.3940429688
810.0000000000;96.4356231689
810.5000000000;96.4317932129
811.0000000000;96.4002304077
811.5000000000;96.4021072388
812.0000000000;96.4441070557
812.5000000000;96.4791336060
813.0000000000;96.4838180542
813.5000000000;96.4608306885
814.0000000000;96.4398574829
814.5000000000;96.4494323730
815.0000000000;96.4924392700
815.5000000000;96.5083160400
816.0000000000;96.4935302734
816.5000000000;96.4962692261
817.0000000000;96.5163192749
817.5000000000;96.5397415161
818.0000000000;96.5570297241
818.5000000000;96.5788726807
819.0000000000;96.6092681885
819.5000000000;96.6103286743
820.0000000000;96.5793991089
820.5000000000;96.5496978760
821.0000000000;96.5484390259
821.5000000000;96.5753936768
822.0000000000;96.5983200073
822.5000000000;96.6163024902
823.0000000000;96.6341629028
823.5000000000;96.6319274902
824.0000000000;96.6276397705
824.5000000000;96.6542282104
825.0000000000;96.6656341553
825.5000000000;96.6523056030
826.0000000000;96.6693344116
826.5000000000;96.6834869385
827.0000000000;96.6625595093
827.5000000000;96.6672821045
828.0000000000;96.7027816772
828.5000000000;96.7297134399
829.0000000000;96.7346496582
829.5000000000;96.7329483032
830.0000000000;96.7587432861
830.5000000000;96.7862243652
831.0000000000;96.7913208008
831.5000000000;96.8027801514
832.0000000000;96.8078918457
832.5000000000;96.7814483643
833.0000000000;96.7684020996
833.5000000000;96.7924728394
834.0000000000;96.8289337158
834.5000000000;96.8104858398
835.0000000000;96.7410125732
835.5000000000;96.7621154785
836.0000000000;96.8239746094
836.5000000000;96.8146209717
837.0000000000;96.8288879395
837.5000000000;96.8784408569
838.0000000000;96.8755722046
838.5000000000;96.8624801636
839.0000000000;96.8772583008
839.5000000000;96.8821105957
840.0000000000;96.8658065796
840.5000000000;96.8420486450
841.0000000000;96.8403625488
841.5000000000;96.8569946289
842.0000000000;96.8630905151
842.5000000000;96.8613967896
843.0000000000;96.8674697876
843.5000000000;96.8964996338
844.0000000000;96.9230270386
844.5000000000;96.9233551025
845.0000000000;96.9206466675
845.5000000000;96.9185867310
846.0000000000;96.9105453491
846.5000000000;96.9263305664
847.0000000000;96.9589080811
847.5000000000;96.9552154541
848.0000000000;96.9346694946
848.5000000000;96.9294357300
849.0000000000;96.9353790283
849.5000000000;96.9412384033
850.0000000000;96.9389724731
850.5000000000;96.9368209839
851.0000000000;96.9363021851
851.5000000000;96.9320755005
852.0000000000;96.9370651245
852.5000000000;96.9294052124
853.0000000000;96.8392028809
853.5000000000;96.7690887451
854.0000000000;96.8228073120
854.5000000000;96.8490753174
855.0000000000;96.8249816895
855.5000000000;96.8529205322
856.0000000000;96.8897933960
856.5000000000;96.8945846558
857.0000000000;96.8888626099
857.5000000000;96.8815917969
858.0000000000;96.8787765503
858.5000000000;96.8941955566
859.0000000000;96.8978347778
859.5000000000;96.8581008911
860.0000000000;96.8538665771
860.5000000000;96.8965225220
861.0000000000;96.9060134888
861.5000000000;96.8990325928
862.0000000000;96.9042587280
862.5000000000;96.9035034180
863.0000000000;96.8940811157
863.5000000000;96.8858795166
864.0000000000;96.8883819580
864.5000000000;96.8999710083
865.0000000000;96.9084091187
865.5000000000;96.9013977051
866.0000000000;96.8867187500
866.5000000000;96.8947525024
867.0000000000;96.9069442749
867.5000000000;96.8946914673
868.0000000000;96.8636093140
868.5000000000;96.8479995728
869.0000000000;96.8812026978
869.5000000000;96.9264907837
870.0000000000;96.9414062500
870.5000000000;96.9079055786
871.0000000000;96.8725738525
871.5000000000;96.8728256226
872.0000000000;96.8871231079
872.5000000000;96.8959732056
873.0000000000;96.8919143677
873.5000000000;96.8862991333
874.0000000000;96.8780975342
874.5000000000;96.8615493774
875.0000000000;96.8736190796
875.5000000000;96.9170455933
876.0000000000;96.9354705811
876.5000000000;96.9227294922
877.0000000000;96.9055862427
877.5000000000;96.9215698242
878.0000000000;96.9458999634
878.5000000000;96.9278488159
879.0000000000;96.8830642700
879.5000000000;96.8618316650
880.0000000000;96.9131164551
880.5000000000;96.9577789307
881.0000000000;96.9537124634
881.5000000000;96.9848785400
882.0000000000;97.0102233887
882.5000000000;96.9738388062
883.0000000000;96.9681854248
883.5000000000;96.9945373535
884.0000000000;96.9875717163
884.5000000000;96.9855575562
885.0000000000;97.0035400391
885.5000000000;97.0031585693
886.0000000000;97.0072250366
886.5000000000;97.0247116089
887.0000000000;96.9981613159
887.5000000000;96.9619064331
888.0000000000;96.9781570435
888.5000000000;97.0133056641
889.0000000000;97.0245971680
889.5000000000;96.9940719604
890.0000000000;96.9792633057
890.5000000000;97.0116424561
891.0000000000;97.0553512573
891.5000000000;97.0580825806
892.0000000000;97.0141677856
892.5000000000;97.0162582397
893.0000000000;97.0604476929
893.5000000000;97.0860443115
894.0000000000;97.0922851563
894.5000000000;97.0912704468
895.0000000000;97.0931701660
895.5000000000;97.0961990356
896.0000000000;97.0947647095
896.5000000000;97.0878372192
897.0000000000;97.1135711670
897.5000000000;97.1706390381
898.0000000000;97.1378250122
898.5000000000;97.0687332153
899.0000000000;97.0916366577
899.5000000000;97.1160202026
900.0000000000;97.1210403442
900.5000000000;97.1842956543
901.0000000000;97.2271652222
901.5000000000;97.2034530640
902.0000000000;97.1947326660
902.5000000000;97.2076644897
903.0000000000;97.2125015259
903.5000000000;97.1983642578
904.0000000000;97.1751327515
904.5000000000;97.1613464355
905.0000000000;97.1589431763
905.5000000000;97.1787490845
906.0000000000;97.2329177856
906.5000000000;97.2637023926
907.0000000000;97.2571868896
907.5000000000;97.2943649292
908.0000000000;97.3195266724
908.5000000000;97.2730026245
909.0000000000;97.2625732422
909.5000000000;97.3121185303
910.0000000000;97.3618850708
910.5000000000;97.3608093262
911.0000000000;97.3229827881
911.5000000000;97.3201675415
912.0000000000;97.3590087891
912.5000000000;97.4046325684
913.0000000000;97.4015502930
913.5000000000;97.3654174805
914.0000000000;97.3475952148
914.5000000000;97.3849334717
915.0000000000;97.4128875732
915.5000000000;97.3513336182
916.0000000000;97.3199615479
916.5000000000;97.3589859009
917.0000000000;97.3874816895
917.5000000000;97.3953094482
918.0000000000;97.4034194946
918.5000000000;97.4368515015
919.0000000000;97.4843063354
919.5000000000;97.5214843750
920.0000000000;97.5417709351
920.5000000000;97.5645370483
921.0000000000;97.6012420654
921.5000000000;97.5836791992
922.0000000000;97.5253143311
922.5000000000;97.5202941895
923.0000000000;97.5508346558
923.5000000000;97.5918960571
924.0000000000;97.6526031494
924.5000000000;97.6797332764
925.0000000000;97.6442565918
925.5000000000;97.6257553101
926.0000000000;97.6409301758
926.5000000000;97.6576385498
927.0000000000;97.6549301147
927.5000000000;97.6613388062
928.0000000000;97.7214126587
928.5000000000;97.7474746704
929.0000000000;97.7130813599
929.5000000000;97.7132110596
930.0000000000;97.7445144653
930.5000000000;97.7753906250
931.0000000000;97.8026351929
931.5000000000;97.7834091187
932.0000000000;97.7106704712
932.5000000000;97.7340698242
933.0000000000;97.8246688843
933.5000000000;97.8359527588
934.0000000000;97.8558959961
934.5000000000;97.8765335083
935.0000000000;97.7636184692
935.5000000000;97.7384185791
936.0000000000;97.9074478149
936.5000000000;97.9879989624
937.0000000000;97.9608764648
937.5000000000;97.9317855835
938.0000000000;97.9202346802
938.5000000000;97.9092864990
939.0000000000;97.8894348145
939.5000000000;97.9324111938
940.0000000000;98.0228576660
940.5000000000;98.0557785034
941.0000000000;98.0199203491
941.5000000000;97.9828109741
942.0000000000;98.0502700806
942.5000000000;98.1067276001
943.0000000000;98.0588607788
943.5000000000;98.0456085205
944.0000000000;98.0806808472
944.5000000000;98.1117858887
945.0000000000;98.1635284424
945.5000000000;98.2093429565
946.0000000000;98.2017288208
946.5000000000;98.2305297852
947.0000000000;98.2846450806
947.5000000000;98.2404174805
948.0000000000;98.2534332275
948.5000000000;98.3672409058
949.0000000000;98.3203277588
949.5000000000;98.2346725464
950.0000000000;98.2994384766
950.5000000000;98.3863220215
951.0000000000;98.3929824829
951.5000000000;98.3275909424
952.0000000000;98.3796615601
952.5000000000;98.5281753540
953.0000000000;98.5715103149
953.5000000000;98.5609207153
954.0000000000;98.5930862427
954.5000000000;98.6940841675
955.0000000000;98.6841506958
955.5000000000;98.5407791138
956.0000000000;98.6086502075
956.5000000000;98.7752914429
957.0000000000;98.7909545898
957.5000000000;98.7381744385
958.0000000000;98.7775650024
958.5000000000;98.9698181152
959.0000000000;98.9866333008
959.5000000000;98.8205566406
960.0000000000;98.7906341553
960.5000000000;98.8664398193
961.0000000000;98.9491958618
961.5000000000;98.9999465942
962.0000000000;99.0423736572
962.5000000000;99.0567245483
963.0000000000;98.9367828369
963.5000000000;98.8849334717
964.0000000000;99.0687866211
964.5000000000;99.1660308838
965.0000000000;99.1470413208
965.5000000000;99.1744232178
966.0000000000;99.1534805298
966.5000000000;99.1107406616
967.0000000000;99.1773605347
967.5000000000;99.1703033447
968.0000000000;99.0671005249
968.5000000000;99.1170043945
969.0000000000;99.1926956177
969.5000000000;99.1519393921
970.0000000000;99.0959701538
970.5000000000;99.0902481079
971.0000000000;99.1335906982
971.5000000000;99.1516647339
972.0000000000;99.1739501953
972.5000000000;99.2568359375
973.0000000000;99.2899932861
973.5000000000;99.2441635132
974.0000000000;99.2017974854
974.5000000000;99.2594375610
975.0000000000;99.3730163574
975.5000000000;99.3653259277
976.0000000000;99.3164443970
976.5000000000;99.3402023315
977.0000000000;99.4203262329
977.5000000000;99.3432540894
978.0000000000;99.0966873169
978.5000000000;99.2078628540
979.0000000000;99.4192581177
979.5000000000;99.2497253418
980.0000000000;99.1353530884
980.5000000000;99.2539138794
981.0000000000;99.4148254395
981.5000000000;99.3883209229
982.0000000000;99.2390136719
982.5000000000;99.2758255005
983.0000000000;99.3815841675
983.5000000000;99.4151000977
984.0000000000;99.4057998657
984.5000000000;99.4183959961
985.0000000000;99.4903335571
985.5000000000;99.5822601318
986.0000000000;99.5873031616
986.5000000000;99.4983901978
987.0000000000;99.5852661133
987.5000000000;99.6525497437
988.0000000000;99.4198837280
988.5000000000;99.4552001953
989.0000000000;99.6692199707
989.5000000000;99.4627304077
990.0000000000;99.3223724365
990.5000000000;99.4858398438
991.0000000000;99.6033096313
991.5000000000;99.5938415527
992.0000000000;99.4880599976
992.5000000000;99.3468856812
993.0000000000;99.4015121460
993.5000000000;99.6781768799
994.0000000000;99.7134399414
994.5000000000;99.6043701172
995.0000000000;99.6428909302
995.5000000000;99.6942291260
996.0000000000;99.5929260254
996.5000000000;99.3367156982
997.0000000000;99.3409118652
997.5000000000;99.6354370117
998.0000000000;99.8503799438
998.5000000000;99.8058319092
999.0000000000;99.6277313232
999.5000000000;99.6514587402
1000.0000000000;99.7131118774
1000.5000000000;99.6529769897
1001.0000000000;99.5902481079
1001.5000000000;99.6564559937
1002.0000000000;99.8254928589
1002.5000000000;99.8295135498
1003.0000000000;99.8955001831
1003.5000000000;100.2113113403
1004.0000000000;100.1931457520
1004.5000000000;99.8920288086
1005.0000000000;99.7544403076
1005.5000000000;99.7676620483
1006.0000000000;99.7968902588
1006.5000000000;99.7295532227
1007.0000000000;99.6553115845
1007.5000000000;99.6894836426
1008.0000000000;99.8634109497
1008.5000000000;99.9269943237
1009.0000000000;99.7850036621
1009.5000000000;99.6658096313
1010.0000000000;99.7074508667
1010.5000000000;99.8645629883
1011.0000000000;99.8893585205
1011.5000000000;99.8279647827
1012.0000000000;99.8362960815
1012.5000000000;99.9444503784
1013.0000000000;100.0626068115
1013.5000000000;100.0510330200
1014.0000000000;99.8450317383
1014.5000000000;99.7290344238
1015.0000000000;100.0251083374
1015.5000000000;100.3004379272
1016.0000000000;100.2939758301
1016.5000000000;100.1355590820
1017.0000000000;100.1928405762
1017.5000000000;100.3767471313
1018.0000000000;100.1407928467
1018.5000000000;99.7641983032
1019.0000000000;99.6358947754
1019.5000000000;99.8468856812
