182.5000000000;12.5096855164
183.0000000000;11.6328763962
183.5000000000;10.6080884933
184.0000000000;9.8748512268
184.5000000000;10.1638765335
185.0000000000;9.3712825775
185.5000000000;6.6315779686
186.0000000000;4.9775991440
186.5000000000;3.7057695389
187.0000000000;2.0138702393
187.5000000000;1.2337896824
188.0000000000;0.9123148918
188.5000000000;0.6808227301
189.0000000000;0.5328052044
189.5000000000;0.4104628563
190.0000000000;0.3040377796
190.5000000000;0.2721572816
191.0000000000;0.2602699995
191.5000000000;0.2159328163
192.0000000000;0.1795515865
192.5000000000;0.1620696783
193.0000000000;0.1593239307
193.5000000000;0.1583760083
194.0000000000;0.1459481716
194.5000000000;0.1359258294
195.0000000000;0.1376333237
195.5000000000;0.1362912059
196.0000000000;0.1286045313
196.5000000000;0.1228107810
197.0000000000;0.1209973395
197.5000000000;0.1202254295
198.0000000000;0.1098722667
198.5000000000;0.0932922438
199.0000000000;0.0882209837
199.5000000000;0.0875349715
200.0000000000;0.0780051425
200.5000000000;0.0731846020
201.0000000000;0.0776571259
201.5000000000;0.0734728724
202.0000000000;0.0625698715
202.5000000000;0.0597167760
203.0000000000;0.0620538145
203.5000000000;0.0628715307
204.0000000000;0.0609238259
204.5000000000;0.0585530475
205.0000000000;0.0607367828
205.5000000000;0.0645054728
206.0000000000;0.0646844804
206.5000000000;0.0672038272
207.0000000000;0.0739069879
207.5000000000;0.0740993917
208.0000000000;0.0688152015
208.5000000000;0.0684859231
209.0000000000;0.0704886988
209.5000000000;0.0698309615
210.0000000000;0.0688544288
210.5000000000;0.0707272068
211.0000000000;0.0771280825
211.5000000000;0.0809342414
212.0000000000;0.0754335299
212.5000000000;0.0699975342
213.0000000000;0.0694875568
213.5000000000;0.0679001212
214.0000000000;0.0662960485
214.5000000000;0.0688062534
215.0000000000;0.0700506270
215.5000000000;0.0663420334
216.0000000000;0.0619986169
216.5000000000;0.0602815971
217.0000000000;0.0618013516
217.5000000000;0.0610219352
218.0000000000;0.0540331230
218.5000000000;0.0465950705
219.0000000000;0.0439453200
219.5000000000;0.0481727831
220.0000000000;0.0522189103
220.5000000000;0.0482452698
221.0000000000;0.0432174802
221.5000000000;0.0428587794
222.0000000000;0.0451697670
222.5000000000;0.0478673801
223.0000000000;0.0492438301
223.5000000000;0.0492983609
224.0000000000;0.0483866744
224.5000000000;0.0462799743
225.0000000000;0.0446491987
225.5000000000;0.0470710918
226.0000000000;0.0525416322
226.5000000000;0.0575773939
227.0000000000;0.0595651157
227.5000000000;0.0585874207
228.0000000000;0.0585426353
228.5000000000;0.0602321438
229.0000000000;0.0624097325
229.5000000000;0.0665215403
230.0000000000;0.0708486438
230.5000000000;0.0659417510
231.0000000000;0.0564576536
231.5000000000;0.0584108531
232.0000000000;0.0665186197
232.5000000000;0.0694676042
233.0000000000;0.0653680190
233.5000000000;0.0600865297
234.0000000000;0.0647899210
234.5000000000;0.0703485981
235.0000000000;0.0632540509
235.5000000000;0.0565475449
236.0000000000;0.0586914010
236.5000000000;0.0612613261
237.0000000000;0.0601457357
237.5000000000;0.0562245324
238.0000000000;0.0538705178
238.5000000000;0.0562855862
239.0000000000;0.0618200824
239.5000000000;0.0644386485
240.0000000000;0.0568033606
240.5000000000;0.0484529398
241.0000000000;0.0499890298
241.5000000000;0.0535834432
242.0000000000;0.0538174883
242.5000000000;0.0528595895
243.0000000000;0.0549187139
243.5000000000;0.0621847659
244.0000000000;0.0643177405
244.5000000000;0.0583727732
245.0000000000;0.0598483458
245.5000000000;0.0676632747
246.0000000000;0.0674997345
246.5000000000;0.0607056506
247.0000000000;0.0550193824
247.5000000000;0.0583502799
248.0000000000;0.0681947917
248.5000000000;0.0710380003
249.0000000000;0.0698703080
249.5000000000;0.0738051310
250.0000000000;0.0787206814
250.5000000000;0.0794674307
251.0000000000;0.0750718862
251.5000000000;0.0727903619
252.0000000000;0.0818102434
252.5000000000;0.0896428376
253.0000000000;0.0864073336
253.5000000000;0.0837133229
254.0000000000;0.0851445198
254.5000000000;0.0852631927
255.0000000000;0.0912525728
255.5000000000;0.1069479957
256.0000000000;0.1106935218
256.5000000000;0.1001240388
257.0000000000;0.1003740579
257.5000000000;0.1072751731
258.0000000000;0.1063097715
258.5000000000;0.1110616028
259.0000000000;0.1241424233
259.5000000000;0.1215764880
260.0000000000;0.1073602438
260.5000000000;0.1042289659
261.0000000000;0.1165306941
261.5000000000;0.1368604302
262.0000000000;0.1468171030
262.5000000000;0.1465443671
263.0000000000;0.1525190473
263.5000000000;0.1660775542
264.0000000000;0.1815822870
264.5000000000;0.1925379485
265.0000000000;0.2011487484
265.5000000000;0.2178197950
266.0000000000;0.2330261767
266.5000000000;0.2334561497
267.0000000000;0.2306816429
267.5000000000;0.2332793474
268.0000000000;0.2370691597
268.5000000000;0.2404539883
269.0000000000;0.2441818863
269.5000000000;0.2480368614
270.0000000000;0.2516813278
270.5000000000;0.2550956309
271.0000000000;0.2578831613
271.5000000000;0.2596534789
272.0000000000;0.2624872029
272.5000000000;0.2679585814
273.0000000000;0.2736813128
273.5000000000;0.2799264193
274.0000000000;0.2905285954
274.5000000000;0.3053867221
275.0000000000;0.3214752674
275.5000000000;0.3335910141
276.0000000000;0.3401969373
276.5000000000;0.3466154039
277.0000000000;0.3590266407
277.5000000000;0.3808676302
278.0000000000;0.3998165429
278.5000000000;0.4087072015
279.0000000000;0.4228409827
279.5000000000;0.4457070529
280.0000000000;0.4666165113
280.5000000000;0.4795725644
281.0000000000;0.4879322350
281.5000000000;0.5145687461
282.0000000000;0.5577290058
282.5000000000;0.5832005143
283.0000000000;0.5962125659
283.5000000000;0.6200763583
284.0000000000;0.6541802287
284.5000000000;0.6934160590
285.0000000000;0.7346549034
285.5000000000;0.7680779696
286.0000000000;0.7843549848
286.5000000000;0.8039946556
287.0000000000;0.8426458836
287.5000000000;0.8866948485
288.0000000000;0.9261254072
288.5000000000;0.9575061202
289.0000000000;0.9810919166
289.5000000000;1.0016202927
290.0000000000;1.0306757689
290.5000000000;1.0633889437
291.0000000000;1.0785644054
291.5000000000;1.0875546932
292.0000000000;1.1117271185
292.5000000000;1.1488672495
293.0000000000;1.1863111258
293.5000000000;1.2053034306
294.0000000000;1.2122312784
294.5000000000;1.2251791954
295.0000000000;1.2410882711
295.5000000000;1.2560822964
296.0000000000;1.2746236324
296.5000000000;1.2960735559
297.0000000000;1.3153380156
297.5000000000;1.3291387558
298.0000000000;1.3388222456
298.5000000000;1.3541830778
299.0000000000;1.3754307032
299.5000000000;1.3928900957
300.0000000000;1.4031339884
300.5000000000;1.4096847773
301.0000000000;1.4268866777
301.5000000000;1.4503375292
302.0000000000;1.4539843798
302.5000000000;1.4522536993
303.0000000000;1.4714728594
303.5000000000;1.4947929382
304.0000000000;1.5091363192
304.5000000000;1.5227630138
305.0000000000;1.5353323221
305.5000000000;1.5417464972
306.0000000000;1.5501455069
306.5000000000;1.5669482946
307.0000000000;1.5870586634
307.5000000000;1.6061671972
308.0000000000;1.6221517324
308.5000000000;1.6352496147
309.0000000000;1.6471245289
309.5000000000;1.6605439186
310.0000000000;1.6768795252
310.5000000000;1.6957353354
311.0000000000;1.7162857056
311.5000000000;1.7364081144
312.0000000000;1.7507231236
312.5000000000;1.7654793262
313.0000000000;1.8016129732
313.5000000000;1.8418616056
314.0000000000;1.8553998470
314.5000000000;1.8660811186
315.0000000000;1.8960015774
315.5000000000;1.9354163408
316.0000000000;1.9734698534
316.5000000000;2.0025348663
317.0000000000;2.0232424736
317.5000000000;2.0431947708
318.0000000000;2.0781660080
318.5000000000;2.1169037819
319.0000000000;2.1274688244
319.5000000000;2.1465656757
320.0000000000;2.2109532356
320.5000000000;2.2598628998
321.0000000000;2.2707214355
321.5000000000;2.2918074131
322.0000000000;2.3349626064
322.5000000000;2.3868932724
323.0000000000;2.4301521778
323.5000000000;2.4599456787
324.0000000000;2.4930508137
324.5000000000;2.5342836380
325.0000000000;2.5781321526
325.5000000000;2.6188340187
326.0000000000;2.6539287567
326.5000000000;2.6877589226
327.0000000000;2.7290990353
327.5000000000;2.7854464054
328.0000000000;2.8366391659
328.5000000000;2.8681628704
329.0000000000;2.9053711891
329.5000000000;2.9547183514
330.0000000000;2.9976422787
330.5000000000;3.0333123207
331.0000000000;3.0708563328
331.5000000000;3.1206593513
332.0000000000;3.1712944508
332.5000000000;3.1886293888
333.0000000000;3.1965830326
333.5000000000;3.2378902435
334.0000000000;3.2958817482
334.5000000000;3.3453650475
335.0000000000;3.3720407486
335.5000000000;3.3877725601
336.0000000000;3.4171009064
336.5000000000;3.4608395100
337.0000000000;3.5092654228
337.5000000000;3.5471041203
338.0000000000;3.5688047409
338.5000000000;3.5788567066
339.0000000000;3.5913732052
339.5000000000;3.6193232536
340.0000000000;3.6642189026
340.5000000000;3.7067329884
341.0000000000;3.7153975964
341.5000000000;3.7087919712
342.0000000000;3.7204165459
342.5000000000;3.7623596191
343.0000000000;3.8112406731
343.5000000000;3.8148913383
344.0000000000;3.7974982262
344.5000000000;3.8061983585
345.0000000000;3.8240900040
345.5000000000;3.8353190422
346.0000000000;3.8450379372
346.5000000000;3.8514750004
347.0000000000;3.8506450653
347.5000000000;3.8521020412
348.0000000000;3.8578138351
348.5000000000;3.8522350788
349.0000000000;3.8447148800
349.5000000000;3.8562383652
350.0000000000;3.8626668453
350.5000000000;3.8435099125
351.0000000000;3.8163042068
351.5000000000;3.8014676571
352.0000000000;3.8114686012
352.5000000000;3.8191902637
353.0000000000;3.7997982502
353.5000000000;3.7720582485
354.0000000000;3.7497394085
354.5000000000;3.7327568531
355.0000000000;3.7107896805
355.5000000000;3.6769824028
356.0000000000;3.6483578682
356.5000000000;3.6302318573
357.0000000000;3.6077668667
357.5000000000;3.5720348358
358.0000000000;3.5246028900
358.5000000000;3.4926290512
359.0000000000;3.4859111309
359.5000000000;3.4747455120
360.0000000000;3.4385004044
360.5000000000;3.3832201958
361.0000000000;3.3256466389
361.5000000000;3.2708613873
362.0000000000;3.2417213917
362.5000000000;3.2292435169
363.0000000000;3.1961934566
363.5000000000;3.1446144581
364.0000000000;3.0889384747
364.5000000000;3.0387518406
365.0000000000;3.0023212433
365.5000000000;2.9819192886
366.0000000000;2.9489719868
366.5000000000;2.8856415749
367.0000000000;2.8306281567
367.5000000000;2.7929692268
368.0000000000;2.7449774742
368.5000000000;2.6864068508
369.0000000000;2.6322185993
369.5000000000;2.6019084454
370.0000000000;2.5819954872
370.5000000000;2.5203502178
371.0000000000;2.4546637535
371.5000000000;2.4452366829
372.0000000000;2.4247045517
372.5000000000;2.3609144688
373.0000000000;2.3203575611
373.5000000000;2.2966380119
374.0000000000;2.2441527843
374.5000000000;2.1984052658
375.0000000000;2.1779911518
375.5000000000;2.1316068172
376.0000000000;2.0671517849
376.5000000000;2.0327312946
377.0000000000;2.0052151680
377.5000000000;1.9626301527
378.0000000000;1.9340573549
378.5000000000;1.9095754623
379.0000000000;1.8518773317
379.5000000000;1.8055992126
380.0000000000;1.8079068661
380.5000000000;1.8023821115
381.0000000000;1.7638648748
381.5000000000;1.7181253433
382.0000000000;1.6975017786
382.5000000000;1.7086313963
383.0000000000;1.6784497499
383.5000000000;1.6048054695
384.0000000000;1.5837148428
384.5000000000;1.6074206829
385.0000000000;1.6162222624
385.5000000000;1.5903912783
386.0000000000;1.5436172485
386.5000000000;1.5201232433
387.0000000000;1.5145568848
387.5000000000;1.4984894991
388.0000000000;1.4777966738
388.5000000000;1.4642491341
389.0000000000;1.4652912617
389.5000000000;1.4765465260
390.0000000000;1.4850554466
390.5000000000;1.4812970161
391.0000000000;1.4701026678
391.5000000000;1.4774271250
392.0000000000;1.4927141666
392.5000000000;1.4845643044
393.0000000000;1.4735487700
393.5000000000;1.4820884466
394.0000000000;1.5023608208
394.5000000000;1.5143219233
395.0000000000;1.4996770620
395.5000000000;1.4890339375
396.0000000000;1.5093761683
396.5000000000;1.5302767754
397.0000000000;1.5371168852
397.5000000000;1.5410373211
398.0000000000;1.5521700382
398.5000000000;1.5748498440
399.0000000000;1.6014589071
399.5000000000;1.6277936697
400.0000000000;1.6544696093
400.5000000000;1.6779817343
401.0000000000;1.6940647364
401.5000000000;1.7049002647
402.0000000000;1.7195512056
402.5000000000;1.7523611784
403.0000000000;1.8038470745
403.5000000000;1.8633284569
404.0000000000;1.9070863724
404.5000000000;1.9348113537
405.0000000000;1.9804549217
405.5000000000;2.0324511528
406.0000000000;2.0636723042
406.5000000000;2.1003203392
407.0000000000;2.1647326946
407.5000000000;2.2480850220
408.0000000000;2.3272612095
408.5000000000;2.3823540211
409.0000000000;2.4458255768
409.5000000000;2.5356154442
410.0000000000;2.6146788597
410.5000000000;2.6830892563
411.0000000000;2.7686200142
411.5000000000;2.8570427895
412.0000000000;2.9367020130
412.5000000000;3.0308489799
413.0000000000;3.1312656403
413.5000000000;3.2162644863
414.0000000000;3.3189821243
414.5000000000;3.4582300186
415.0000000000;3.5808839798
415.5000000000;3.6830310822
416.0000000000;3.8152463436
416.5000000000;3.9524781704
417.0000000000;4.0631289482
417.5000000000;4.1966328621
418.0000000000;4.3621158600
418.5000000000;4.5205116272
419.0000000000;4.6792025566
419.5000000000;4.8505878448
420.0000000000;5.0226411819
420.5000000000;5.1934309006
421.0000000000;5.3682665825
421.5000000000;5.5444922447
422.0000000000;5.7269449234
422.5000000000;5.9283795357
423.0000000000;6.1361508369
423.5000000000;6.3212447166
424.0000000000;6.5175576210
424.5000000000;6.7766971588
425.0000000000;7.0475039482
425.5000000000;7.2792882919
426.0000000000;7.5139770508
426.5000000000;7.7723212242
427.0000000000;8.0225772858
427.5000000000;8.2520675659
428.0000000000;8.4926462173
428.5000000000;8.7777814865
429.0000000000;9.0890998840
429.5000000000;9.3705339432
430.0000000000;9.6442470551
430.5000000000;9.9471960068
431.0000000000;10.2658786774
431.5000000000;10.5814924240
432.0000000000;10.8801898956
432.5000000000;11.1906127930
433.0000000000;11.5333585739
433.5000000000;11.8723478317
434.0000000000;12.1811485291
434.5000000000;12.5055952072
435.0000000000;12.8748245239
435.5000000000;13.2483234406
436.0000000000;13.6091451645
436.5000000000;13.9650325775
437.0000000000;14.3178253174
437.5000000000;14.6778564453
438.0000000000;15.0503282547
438.5000000000;15.4296617508
439.0000000000;15.8119659424
439.5000000000;16.1963443756
440.0000000000;16.5904846191
440.5000000000;16.9967746735
441.0000000000;17.3828182220
441.5000000000;17.7283058167
442.0000000000;18.0989208221
442.5000000000;18.5242671967
443.0000000000;18.9603939056
443.5000000000;19.3766613007
444.0000000000;19.7724933624
444.5000000000;20.1708526611
445.0000000000;20.5817909241
445.5000000000;21.0040912628
446.0000000000;21.4206180573
446.5000000000;21.8286819458
447.0000000000;22.2549018860
447.5000000000;22.6965904236
448.0000000000;23.1290760040
448.5000000000;23.5562324524
449.0000000000;23.9785175323
449.5000000000;24.3863105774
450.0000000000;24.7976436615
450.5000000000;25.2335090637
451.0000000000;25.6802005768
451.5000000000;26.1228141785
452.0000000000;26.5588150024
452.5000000000;26.9825592041
453.0000000000;27.3953800201
453.5000000000;27.8186206818
454.0000000000;28.2604122162
454.5000000000;28.7075424194
455.0000000000;29.1403293610
455.5000000000;29.5513401031
456.0000000000;29.9804229736
456.5000000000;30.4348392487
457.0000000000;30.8593902588
457.5000000000;31.2583618164
458.0000000000;31.6677246094
458.5000000000;32.0839424133
459.0000000000;32.5146408081
459.5000000000;32.9607353210
460.0000000000;33.4093437195
460.5000000000;33.8577461243
461.0000000000;34.3019218445
461.5000000000;34.7304000854
462.0000000000;35.1609306335
462.5000000000;35.5933227539
463.0000000000;35.9869995117
463.5000000000;36.3654937744
464.0000000000;36.7779693604
464.5000000000;37.2106056213
465.0000000000;37.6426887512
465.5000000000;38.0780181885
466.0000000000;38.5009078979
466.5000000000;38.9051017761
467.0000000000;39.3304786682
467.5000000000;39.7705841064
468.0000000000;40.1872367859
468.5000000000;40.5882530212
469.0000000000;41.0088310242
469.5000000000;41.4656677246
470.0000000000;41.9265899658
470.5000000000;42.3462181091
471.0000000000;42.7345352173
471.5000000000;43.1196403503
472.0000000000;43.5208358765
472.5000000000;43.9239387512
473.0000000000;44.2973289490
473.5000000000;44.6636924744
474.0000000000;45.0656356812
474.5000000000;45.5014801025
475.0000000000;45.9235877991
475.5000000000;46.2969284058
476.0000000000;46.6612052917
476.5000000000;47.0499076843
477.0000000000;47.4433326721
477.5000000000;47.8323783875
478.0000000000;48.2132835388
478.5000000000;48.5823974609
479.0000000000;48.9543533325
479.5000000000;49.3277587891
480.0000000000;49.6893920898
480.5000000000;50.0481414795
481.0000000000;50.4160461426
481.5000000000;50.7898139954
482.0000000000;51.1505889893
482.5000000000;51.4942131042
483.0000000000;51.8310203552
483.5000000000;52.1771812439
484.0000000000;52.5205688477
484.5000000000;52.8177871704
485.0000000000;53.1763458252
485.5000000000;53.6138038635
486.0000000000;53.8113098145
486.5000000000;53.8035087585
487.0000000000;54.0825080872
487.5000000000;54.7030448914
488.0000000000;55.1547050476
488.5000000000;55.4478607178
489.0000000000;55.7681121826
489.5000000000;56.0810089111
490.0000000000;56.3633003235
490.5000000000;56.6448898315
491.0000000000;56.9405517578
491.5000000000;57.2513885498
492.0000000000;57.5729598999
492.5000000000;57.8680114746
493.0000000000;58.0980110168
493.5000000000;58.3367424011
494.0000000000;58.6511611938
494.5000000000;58.9909591675
495.0000000000;59.3054466248
495.5000000000;59.5789070129
496.0000000000;59.8382759094
496.5000000000;60.0997276306
497.0000000000;60.3447036743
497.5000000000;60.5912361145
498.0000000000;60.8591995239
498.5000000000;61.0939140320
499.0000000000;61.2810516357
499.5000000000;61.5154800415
500.0000000000;61.8057441711
500.5000000000;62.0734825134
501.0000000000;62.2904777527
501.5000000000;62.4754600525
502.0000000000;62.6995506287
502.5000000000;62.9635391235
503.0000000000;63.2003097534
503.5000000000;63.4154281616
504.0000000000;63.6363449097
504.5000000000;63.8608932495
505.0000000000;64.0781860352
505.5000000000;64.2802047729
506.0000000000;64.4793548584
506.5000000000;64.6887893677
507.0000000000;64.9056472778
507.5000000000;65.1173934937
508.0000000000;65.3058624268
508.5000000000;65.4913635254
509.0000000000;65.6971054077
509.5000000000;65.9065093994
510.0000000000;66.0999374390
510.5000000000;66.2722778320
511.0000000000;66.4461593628
511.5000000000;66.6342315674
512.0000000000;66.8183670044
512.5000000000;66.9917297363
513.0000000000;67.1588287354
513.5000000000;67.3418273926
514.0000000000;67.5443115234
514.5000000000;67.7241973877
515.0000000000;67.8859939575
515.5000000000;68.0625457764
516.0000000000;68.2342605591
516.5000000000;68.3905563354
517.0000000000;68.5579147339
517.5000000000;68.7243347168
518.0000000000;68.8620452881
518.5000000000;69.0085372925
519.0000000000;69.1821212769
519.5000000000;69.3395843506
520.0000000000;69.4831848145
520.5000000000;69.6423797607
521.0000000000;69.8011474609
521.5000000000;69.9485473633
522.0000000000;70.1075057983
522.5000000000;70.2706909180
523.0000000000;70.4133911133
523.5000000000;70.5534133911
524.0000000000;70.7032012939
524.5000000000;70.8464431763
525.0000000000;70.9848175049
525.5000000000;71.1282958984
526.0000000000;71.2620773315
526.5000000000;71.3812713623
527.0000000000;71.5050277710
527.5000000000;71.6391906738
528.0000000000;71.7789688110
528.5000000000;71.9174270630
529.0000000000;72.0520095825
529.5000000000;72.1877899170
530.0000000000;72.3147811890
530.5000000000;72.4256210327
531.0000000000;72.5585403442
531.5000000000;72.7154693604
532.0000000000;72.8407363892
532.5000000000;72.9464569092
533.0000000000;73.0675506592
533.5000000000;73.1814651489
534.0000000000;73.2831497192
534.5000000000;73.4010925293
535.0000000000;73.5309448242
535.5000000000;73.6550292969
536.0000000000;73.7750015259
536.5000000000;73.8942108154
537.0000000000;74.0115890503
537.5000000000;74.1269607544
538.0000000000;74.2385635376
538.5000000000;74.3376541138
539.0000000000;74.4319305420
539.5000000000;74.5448150635
540.0000000000;74.6703720093
540.5000000000;74.7932205200
541.0000000000;74.9122924805
541.5000000000;75.0227966309
542.0000000000;75.1161575317
542.5000000000;75.2121047974
543.0000000000;75.3304214478
543.5000000000;75.4524612427
544.0000000000;75.5663528442
544.5000000000;75.6763839722
545.0000000000;75.7782363892
545.5000000000;75.8706588745
546.0000000000;75.9688186646
546.5000000000;76.0805130005
547.0000000000;76.2009658813
547.5000000000;76.3024826050
548.0000000000;76.3751296997
548.5000000000;76.4636306763
549.0000000000;76.5824661255
549.5000000000;76.7103652954
550.0000000000;76.8220520020
550.5000000000;76.9161911011
551.0000000000;77.0335083008
551.5000000000;77.1546325684
552.0000000000;77.2276611328
552.5000000000;77.3090820313
553.0000000000;77.4327239990
553.5000000000;77.5295639038
554.0000000000;77.6015930176
554.5000000000;77.6995315552
555.0000000000;77.8048629761
555.5000000000;77.8961181641
556.0000000000;77.9859542847
556.5000000000;78.0810470581
557.0000000000;78.1798248291
557.5000000000;78.2773513794
558.0000000000;78.3731460571
558.5000000000;78.4746932983
559.0000000000;78.5782928467
559.5000000000;78.6732940674
560.0000000000;78.7592239380
560.5000000000;78.8425216675
561.0000000000;78.9328765869
561.5000000000;79.0244674683
562.0000000000;79.1100997925
562.5000000000;79.2089157104
563.0000000000;79.3210830688
563.5000000000;79.4194107056
564.0000000000;79.5051956177
564.5000000000;79.5906906128
565.0000000000;79.6770782471
565.5000000000;79.7680740356
566.0000000000;79.8692398071
566.5000000000;79.9669647217
567.0000000000;80.0474548340
567.5000000000;80.1237640381
568.0000000000;80.1953811646
568.5000000000;80.2402420044
569.0000000000;80.2569351196
569.5000000000;80.2688522339
570.0000000000;80.3307495117
570.5000000000;80.4330368042
571.0000000000;80.4917526245
571.5000000000;80.4485321045
572.0000000000;80.3948974609
572.5000000000;80.5448684692
573.0000000000;80.7967529297
573.5000000000;80.9007644653
574.0000000000;80.9057846069
574.5000000000;80.9163894653
575.0000000000;80.9583282471
575.5000000000;81.0247955322
576.0000000000;81.1094207764
576.5000000000;81.2784652710
577.0000000000;81.4768371582
577.5000000000;81.4490509033
578.0000000000;81.3622970581
578.5000000000;81.5381698608
579.0000000000;81.8365173340
579.5000000000;82.0242385864
580.0000000000;81.9823684692
580.5000000000;81.8658905029
581.0000000000;81.8636474609
581.5000000000;81.7629241943
582.0000000000;81.6027145386
582.5000000000;81.7243423462
583.0000000000;82.0247726440
583.5000000000;82.1794891357
584.0000000000;82.1564559937
584.5000000000;82.0883178711
585.0000000000;82.1449966431
585.5000000000;82.2741394043
586.0000000000;82.3748474121
586.5000000000;82.4742813110
587.0000000000;82.5681381226
587.5000000000;82.6090469360
588.0000000000;82.6146011353
588.5000000000;82.6366577148
589.0000000000;82.7452163696
589.5000000000;82.9193267822
590.0000000000;83.0520324707
590.5000000000;83.1305389404
591.0000000000;83.1828536987
591.5000000000;83.2322387695
592.0000000000;83.2948226929
592.5000000000;83.3689498901
593.0000000000;83.4148101807
593.5000000000;83.4478378296
594.0000000000;83.5625000000
594.5000000000;83.6814956665
595.0000000000;83.6868362427
595.5000000000;83.7261657715
596.0000000000;83.8694381714
596.5000000000;83.9957504272
597.0000000000;84.0669708252
597.5000000000;84.1196746826
598.0000000000;84.2147750854
598.5000000000;84.3440628052
599.0000000000;84.4209747314
599.5000000000;84.4791641235
600.0000000000;84.5682830811
600.5000000000;84.6186447144
601.0000000000;84.6251296997
601.5000000000;84.6607437134
602.0000000000;84.7490692139
602.5000000000;84.8598403931
603.0000000000;84.8994140625
603.5000000000;84.8992996216
604.0000000000;84.9741058350
604.5000000000;85.0928115845
605.0000000000;85.1868896484
605.5000000000;85.2451858521
606.0000000000;85.2793731689
606.5000000000;85.3063278198
607.0000000000;85.3443832397
607.5000000000;85.3943786621
608.0000000000;85.4299011230
608.5000000000;85.4671936035
609.0000000000;85.5274200439
609.5000000000;85.5475616455
610.0000000000;85.5263824463
610.5000000000;85.5531539917
611.0000000000;85.6025543213
611.5000000000;85.6187133789
612.0000000000;85.6359634399
612.5000000000;85.6687240601
613.0000000000;85.6932525635
613.5000000000;85.7047958374
614.0000000000;85.7162475586
614.5000000000;85.7575225830
615.0000000000;85.8106307983
615.5000000000;85.8239669800
616.0000000000;85.8422622681
616.5000000000;85.9047012329
617.0000000000;85.9677276611
617.5000000000;85.9981231689
618.0000000000;85.9945526123
618.5000000000;86.0006408691
619.0000000000;86.0326232910
619.5000000000;86.0457305908
620.0000000000;86.0510406494
620.5000000000;86.0898971558
621.0000000000;86.1727371216
621.5000000000;86.2549743652
622.0000000000;86.2491760254
622.5000000000;86.2187500000
623.0000000000;86.2569580078
623.5000000000;86.3234176636
624.0000000000;86.3820953369
624.5000000000;86.4314193726
625.0000000000;86.4975128174
625.5000000000;86.5870208740
626.0000000000;86.6373214722
626.5000000000;86.6518554688
627.0000000000;86.6887817383
627.5000000000;86.7297286987
628.0000000000;86.7605743408
628.5000000000;86.8205795288
629.0000000000;86.8894729614
629.5000000000;86.9216918945
630.0000000000;86.9644851685
630.5000000000;87.0446090698
631.0000000000;87.1198120117
631.5000000000;87.1744995117
632.0000000000;87.2144699097
632.5000000000;87.2470779419
633.0000000000;87.2811126709
633.5000000000;87.3253860474
634.0000000000;87.3770446777
634.5000000000;87.4270782471
635.0000000000;87.4658737183
635.5000000000;87.4929733276
636.0000000000;87.5173187256
636.5000000000;87.5462493896
637.0000000000;87.5819778442
637.5000000000;87.6172332764
638.0000000000;87.6500015259
638.5000000000;87.6856002808
639.0000000000;87.7338790894
639.5000000000;87.7877960205
640.0000000000;87.8149414063
640.5000000000;87.8349151611
641.0000000000;87.8831176758
641.5000000000;87.9235534668
642.0000000000;87.9376144409
642.5000000000;87.9511032104
643.0000000000;87.9705047607
643.5000000000;87.9925765991
644.0000000000;88.0188140869
644.5000000000;88.0460052490
645.0000000000;88.0662918091
645.5000000000;88.0837707520
646.0000000000;88.1045761108
646.5000000000;88.1275405884
647.0000000000;88.1490325928
647.5000000000;88.1656341553
648.0000000000;88.1808471680
648.5000000000;88.1962814331
649.0000000000;88.2076339722
649.5000000000;88.2222442627
650.0000000000;88.2499694824
650.5000000000;88.2786026001
651.0000000000;88.2965469360
651.5000000000;88.3024139404
652.0000000000;88.3121109009
652.5000000000;88.3418731689
653.0000000000;88.3836288452
653.5000000000;88.4005203247
654.0000000000;88.3680953979
654.5000000000;88.5105972290
655.0000000000;88.7856521606
655.5000000000;88.4459533691
656.0000000000;87.9659729004
656.5000000000;87.2024993896
657.0000000000;86.6350860596
657.5000000000;87.9711456299
658.0000000000;88.8581466675
658.5000000000;88.6583557129
659.0000000000;88.6720504761
659.5000000000;88.8033828735
660.0000000000;88.8503265381
660.5000000000;88.8967056274
661.0000000000;88.9425888062
661.5000000000;88.9634170532
662.0000000000;89.0051498413
662.5000000000;89.0637283325
663.0000000000;89.0880203247
663.5000000000;89.1157531738
664.0000000000;89.1792449951
664.5000000000;89.2326889038
665.0000000000;89.2703170776
665.5000000000;89.3196258545
666.0000000000;89.3811264038
666.5000000000;89.4435958862
667.0000000000;89.4914169312
667.5000000000;89.5302810669
668.0000000000;89.5739669800
668.5000000000;89.6188735962
669.0000000000;89.6593933105
669.5000000000;89.6937713623
670.0000000000;89.7318954468
670.5000000000;89.7790451050
671.0000000000;89.8181610107
671.5000000000;89.8521347046
672.0000000000;89.8983840942
672.5000000000;89.9402618408
673.0000000000;89.9689941406
673.5000000000;90.0079574585
674.0000000000;90.0559005737
674.5000000000;90.0972213745
675.0000000000;90.1334991455
675.5000000000;90.1670913696
676.0000000000;90.1969909668
676.5000000000;90.2312469482
677.0000000000;90.2757034302
677.5000000000;90.3178939819
678.0000000000;90.3520812988
678.5000000000;90.3817520142
679.0000000000;90.4034957886
679.5000000000;90.4188613892
680.0000000000;90.4447402954
680.5000000000;90.4847717285
681.0000000000;90.5274658203
681.5000000000;90.5475234985
682.0000000000;90.5507049561
682.5000000000;90.5870208740
683.0000000000;90.6426620483
683.5000000000;90.6773376465
684.0000000000;90.6870803833
684.5000000000;90.6762084961
685.0000000000;90.6540222168
685.5000000000;90.6562957764
686.0000000000;90.7049102783
686.5000000000;90.7677764893
687.0000000000;90.8100433350
687.5000000000;90.8152847290
688.0000000000;90.8293151855
688.5000000000;90.8710556030
689.0000000000;90.8923568726
689.5000000000;90.8920745850
690.0000000000;90.8963699341
690.5000000000;90.9151992798
691.0000000000;90.9398040771
691.5000000000;90.9489135742
692.0000000000;90.9587860107
692.5000000000;90.9838562012
693.0000000000;90.9979400635
693.5000000000;91.0108947754
694.0000000000;91.0548934937
694.5000000000;91.0955886841
695.0000000000;91.1122207642
695.5000000000;91.1394195557
696.0000000000;91.1728591919
696.5000000000;91.1888427734
697.0000000000;91.1943740845
697.5000000000;91.2097396851
698.0000000000;91.2567901611
698.5000000000;91.3092269897
699.0000000000;91.3394470215
699.5000000000;91.3707504272
700.0000000000;91.4085617065
700.5000000000;91.4406967163
701.0000000000;91.4792709351
701.5000000000;91.5240097046
702.0000000000;91.5445556641
702.5000000000;91.5598754883
703.0000000000;91.6055374146
703.5000000000;91.6610336304
704.0000000000;91.7049255371
704.5000000000;91.7333908081
705.0000000000;91.7671432495
705.5000000000;91.8162460327
706.0000000000;91.8423156738
706.5000000000;91.8427429199
707.0000000000;91.8496246338
707.5000000000;91.8832397461
708.0000000000;91.9436264038
708.5000000000;92.0046005249
709.0000000000;92.0605087280
709.5000000000;92.1162719727
710.0000000000;92.1613540649
710.5000000000;92.1959762573
711.0000000000;92.2350463867
711.5000000000;92.2744369507
712.0000000000;92.3073883057
712.5000000000;92.3412017822
713.0000000000;92.3729019165
713.5000000000;92.3967514038
714.0000000000;92.4392852783
714.5000000000;92.5006027222
715.0000000000;92.5312881470
715.5000000000;92.5487670898
716.0000000000;92.5939178467
716.5000000000;92.6527938843
717.0000000000;92.7089614868
717.5000000000;92.7561645508
718.0000000000;92.7918701172
718.5000000000;92.8196640015
719.0000000000;92.8525314331
719.5000000000;92.9015731812
720.0000000000;92.9679260254
720.5000000000;93.0180053711
721.0000000000;93.0431060791
721.5000000000;93.0798416138
722.0000000000;93.1268692017
722.5000000000;93.1670913696
723.0000000000;93.1997451782
723.5000000000;93.2284698486
724.0000000000;93.2586593628
724.5000000000;93.2925338745
725.0000000000;93.3237686157
725.5000000000;93.3356399536
726.0000000000;93.3416976929
726.5000000000;93.3675918579
727.0000000000;93.4062118530
727.5000000000;93.4499511719
728.0000000000;93.4990005493
728.5000000000;93.5372085571
729.0000000000;93.5567932129
729.5000000000;93.5873870850
730.0000000000;93.6236648560
730.5000000000;93.6330795288
731.0000000000;93.6259689331
731.5000000000;93.6311264038
732.0000000000;93.6800765991
732.5000000000;93.7464218140
733.0000000000;93.7848892212
733.5000000000;93.8036575317
734.0000000000;93.8117980957
734.5000000000;93.8090209961
735.0000000000;93.8045043945
735.5000000000;93.8141708374
736.0000000000;93.8567962646
736.5000000000;93.9071578979
737.0000000000;93.9246063232
737.5000000000;93.9454650879
738.0000000000;93.9933547974
738.5000000000;94.0441131592
739.0000000000;94.0624008179
739.5000000000;94.0348663330
740.0000000000;94.0080718994
740.5000000000;94.0163803101
741.0000000000;94.0660171509
741.5000000000;94.1131820679
742.0000000000;94.1295471191
742.5000000000;94.1424789429
743.0000000000;94.1682891846
743.5000000000;94.2033004761
744.0000000000;94.2147598267
744.5000000000;94.2099609375
745.0000000000;94.2355575562
745.5000000000;94.2611083984
746.0000000000;94.2593612671
746.5000000000;94.2733840942
747.0000000000;94.2958450317
747.5000000000;94.2925720215
748.0000000000;94.2977066040
748.5000000000;94.3258819580
749.0000000000;94.3460311890
749.5000000000;94.3634414673
750.0000000000;94.3845062256
750.5000000000;94.3734359741
751.0000000000;94.3627014160
751.5000000000;94.4224548340
752.0000000000;94.4745712280
752.5000000000;94.4649810791
753.0000000000;94.4525222778
753.5000000000;94.4507446289
754.0000000000;94.4527969360
754.5000000000;94.4885482788
755.0000000000;94.5499114990
755.5000000000;94.5866012573
756.0000000000;94.5864028931
756.5000000000;94.5617446899
757.0000000000;94.5413284302
757.5000000000;94.5457687378
758.0000000000;94.5792007446
758.5000000000;94.6108245850
759.0000000000;94.6303939819
759.5000000000;94.6605987549
760.0000000000;94.7136688232
760.5000000000;94.7763671875
761.0000000000;94.7941818237
761.5000000000;94.8039093018
762.0000000000;94.8832397461
762.5000000000;94.9465026855
763.0000000000;94.9385147095
763.5000000000;94.9138870239
764.0000000000;94.9226150513
764.5000000000;94.9784851074
765.0000000000;95.0192413330
765.5000000000;95.0443344116
766.0000000000;95.1051406860
766.5000000000;95.1857452393
767.0000000000;95.2468109131
767.5000000000;95.2513809204
768.0000000000;95.2195205688
768.5000000000;95.1935195923
769.0000000000;95.1847534180
769.5000000000;95.2120437622
770.0000000000;95.2950592041
770.5000000000;95.3758621216
771.0000000000;95.4103317261
771.5000000000;95.4357681274
772.0000000000;95.4831237793
772.5000000000;95.5548171997
773.0000000000;95.5971679688
773.5000000000;95.6029281616
774.0000000000;95.6227874756
774.5000000000;95.6723175049
775.0000000000;95.7369766235
775.5000000000;95.7748260498
776.0000000000;95.7834091187
776.5000000000;95.7895126343
777.0000000000;95.8144149780
777.5000000000;95.8539886475
778.0000000000;95.8787612915
778.5000000000;95.8908386230
779.0000000000;95.8978729248
779.5000000000;95.8904342651
780.0000000000;95.8937301636
780.5000000000;95.9398193359
781.0000000000;95.9735641479
781.5000000000;95.9783630371
782.0000000000;96.0107879639
782.5000000000;96.0444030762
783.0000000000;96.0477371216
783.5000000000;96.0735168457
784.0000000000;96.1248931885
784.5000000000;96.1630172729
785.0000000000;96.1884765625
785.5000000000;96.2078933716
786.0000000000;96.2225418091
786.5000000000;96.2425003052
787.0000000000;96.2760086060
787.5000000000;96.3156433105
788.0000000000;96.3328704834
788.5000000000;96.3025970459
789.0000000000;96.2926406860
789.5000000000;96.3333511353
790.0000000000;96.3647918701
790.5000000000;96.3821563721
791.0000000000;96.4037551880
791.5000000000;96.4205322266
792.0000000000;96.4424972534
792.5000000000;96.4884948730
793.0000000000;96.5145568848
793.5000000000;96.4958038330
794.0000000000;96.4672622681
794.5000000000;96.4624557495
795.0000000000;96.4964752197
795.5000000000;96.5441207886
796.0000000000;96.5883712769
796.5000000000;96.6246337891
797.0000000000;96.6407623291
797.5000000000;96.6353759766
798.0000000000;96.6269836426
798.5000000000;96.6284255981
799.0000000000;96.6445999146
799.5000000000;96.6689071655
800.0000000000;96.6908950806
800.5000000000;96.7005386353
801.0000000000;96.6994552612
801.5000000000;96.6963500977
802.0000000000;96.7048950195
802.5000000000;96.7324676514
803.0000000000;96.7717208862
803.5000000000;96.7879028320
804.0000000000;96.7844085693
804.5000000000;96.7975921631
805.0000000000;96.8203659058
805.5000000000;96.8282318115
806.0000000000;96.7990722656
806.5000000000;96.7724380493
807.0000000000;96.7968673706
807.5000000000;96.8466262817
808.0000000000;96.8794174194
808.5000000000;96.8670578003
809.0000000000;96.8649215698
809.5000000000;96.9007415771
810.0000000000;96.9187240601
810.5000000000;96.9103164673
811.0000000000;96.9002990723
811.5000000000;96.9154052734
812.0000000000;96.9496383667
812.5000000000;96.9710693359
813.0000000000;96.9755554199
813.5000000000;96.9680557251
814.0000000000;96.9553298950
814.5000000000;96.9645385742
815.0000000000;97.0054092407
815.5000000000;97.0130081177
816.0000000000;96.9898757935
816.5000000000;96.9965286255
817.0000000000;97.0219497681
817.5000000000;97.0444259644
818.0000000000;97.0602035522
818.5000000000;97.0727233887
819.0000000000;97.0846633911
819.5000000000;97.0894393921
820.0000000000;97.0813064575
820.5000000000;97.0633239746
821.0000000000;97.0674896240
821.5000000000;97.1000137329
822.0000000000;97.1226272583
822.5000000000;97.1270294189
823.0000000000;97.1264877319
823.5000000000;97.1427078247
824.0000000000;97.1637954712
824.5000000000;97.1612396240
825.0000000000;97.1559829712
825.5000000000;97.1648406982
826.0000000000;97.1798858643
826.5000000000;97.1804962158
827.0000000000;97.1640167236
827.5000000000;97.1751403809
828.0000000000;97.2082214355
828.5000000000;97.2267150879
829.0000000000;97.2386169434
829.5000000000;97.2557373047
830.0000000000;97.2792968750
830.5000000000;97.2974090576
831.0000000000;97.3041458130
831.5000000000;97.3151473999
832.0000000000;97.3244705200
832.5000000000;97.3169479370
833.0000000000;97.3037261963
833.5000000000;97.2961273193
834.0000000000;97.2956161499
834.5000000000;97.2820892334
835.0000000000;97.2589721680
835.5000000000;97.2798156738
836.0000000000;97.3189163208
836.5000000000;97.3279953003
837.0000000000;97.3518829346
837.5000000000;97.3781509399
838.0000000000;97.3461761475
838.5000000000;97.3403244019
839.0000000000;97.3968582153
839.5000000000;97.4082031250
840.0000000000;97.3885498047
840.5000000000;97.3944702148
841.0000000000;97.3992691040
841.5000000000;97.3917083740
842.0000000000;97.3839569092
842.5000000000;97.3759384155
843.0000000000;97.3785705566
843.5000000000;97.4151306152
844.0000000000;97.4414978027
844.5000000000;97.4248199463
845.0000000000;97.4277572632
845.5000000000;97.4458694458
846.0000000000;97.4346542358
846.5000000000;97.4346542358
847.0000000000;97.4540405273
847.5000000000;97.4459838867
848.0000000000;97.4371719360
848.5000000000;97.4493255615
849.0000000000;97.4374618530
849.5000000000;97.4179382324
850.0000000000;97.4299926758
850.5000000000;97.4382476807
851.0000000000;97.4264831543
851.5000000000;97.4143447876
852.0000000000;97.4177703857
852.5000000000;97.4214096069
853.0000000000;97.3744506836
853.5000000000;97.3359375000
854.0000000000;97.3705291748
854.5000000000;97.3922882080
855.0000000000;97.3872756958
855.5000000000;97.4108123779
856.0000000000;97.4259490967
856.5000000000;97.4159622192
857.0000000000;97.4226455688
857.5000000000;97.4243698120
858.0000000000;97.4005737305
858.5000000000;97.3991394043
859.0000000000;97.4089889526
859.5000000000;97.3939208984
860.0000000000;97.4061355591
860.5000000000;97.4456329346
861.0000000000;97.4435958862
861.5000000000;97.4246139526
862.0000000000;97.4232635498
862.5000000000;97.4264068604
863.0000000000;97.4336853027
863.5000000000;97.4433975220
864.0000000000;97.4230422974
864.5000000000;97.4032669067
865.0000000000;97.4476318359
865.5000000000;97.4650192261
866.0000000000;97.4175338745
866.5000000000;97.4008941650
867.0000000000;97.4149932861
867.5000000000;97.4232940674
868.0000000000;97.4234619141
868.5000000000;97.4251480103
869.0000000000;97.4398498535
869.5000000000;97.4646148682
870.0000000000;97.4778289795
870.5000000000;97.4528732300
871.0000000000;97.4364624023
871.5000000000;97.4539794922
872.0000000000;97.4480972290
872.5000000000;97.4185638428
873.0000000000;97.4022293091
873.5000000000;97.4254837036
874.0000000000;97.4568481445
874.5000000000;97.4387435913
875.0000000000;97.4309234619
875.5000000000;97.4602966309
876.0000000000;97.4674758911
876.5000000000;97.4561538696
877.0000000000;97.4519958496
877.5000000000;97.4573898315
878.0000000000;97.4689788818
878.5000000000;97.4725570679
879.0000000000;97.4267959595
879.5000000000;97.3730773926
880.0000000000;97.4148178101
880.5000000000;97.4796905518
881.0000000000;97.5015640259
881.5000000000;97.5255432129
882.0000000000;97.5337524414
882.5000000000;97.5017623901
883.0000000000;97.4880981445
883.5000000000;97.4988479614
884.0000000000;97.5000000000
884.5000000000;97.5092086792
885.0000000000;97.5246810913
885.5000000000;97.5129928589
886.0000000000;97.5016555786
886.5000000000;97.5203475952
887.0000000000;97.5525054932
887.5000000000;97.5460510254
888.0000000000;97.4837417603
888.5000000000;97.4952011108
889.0000000000;97.5620040894
889.5000000000;97.5444869995
890.0000000000;97.5032501221
890.5000000000;97.5047760010
891.0000000000;97.5397415161
891.5000000000;97.5698013306
892.0000000000;97.5691833496
892.5000000000;97.5600585938
893.0000000000;97.5703506470
893.5000000000;97.6047286987
894.0000000000;97.5981521606
894.5000000000;97.5695877075
895.0000000000;97.6053390503
895.5000000000;97.6311798096
896.0000000000;97.5995864868
896.5000000000;97.5773849487
897.0000000000;97.6055068970
897.5000000000;97.6653060913
898.0000000000;97.6510467529
898.5000000000;97.5908508301
899.0000000000;97.5868301392
899.5000000000;97.6295700073
900.0000000000;97.6843795776
900.5000000000;97.7173995972
901.0000000000;97.7115402222
901.5000000000;97.6819686890
902.0000000000;97.6776962280
902.5000000000;97.6919937134
903.0000000000;97.6989288330
903.5000000000;97.6974792480
904.0000000000;97.6828460693
904.5000000000;97.6554718018
905.0000000000;97.6530990601
905.5000000000;97.6915054321
906.0000000000;97.7473373413
906.5000000000;97.7695770264
907.0000000000;97.7456588745
907.5000000000;97.7334136963
908.0000000000;97.7396774292
908.5000000000;97.7494583130
909.0000000000;97.7678909302
909.5000000000;97.7981414795
910.0000000000;97.8278656006
910.5000000000;97.8050994873
911.0000000000;97.7509689331
911.5000000000;97.7568359375
912.0000000000;97.7998352051
912.5000000000;97.8378601074
913.0000000000;97.8633193970
913.5000000000;97.8543701172
914.0000000000;97.8206176758
914.5000000000;97.8566894531
915.0000000000;97.8928375244
915.5000000000;97.8087539673
916.0000000000;97.7654953003
916.5000000000;97.8230514526
917.0000000000;97.8767623901
917.5000000000;97.8904495239
918.0000000000;97.8857879639
918.5000000000;97.9222183228
919.0000000000;97.9538803101
919.5000000000;97.9342880249
920.0000000000;97.9392623901
920.5000000000;97.9739990234
921.0000000000;97.9897842407
921.5000000000;97.9711227417
922.0000000000;97.9539031982
922.5000000000;97.9957504272
923.0000000000;98.0340728760
923.5000000000;98.0419082642
924.0000000000;98.0822906494
924.5000000000;98.0812530518
925.0000000000;98.0017700195
925.5000000000;98.0096359253
926.0000000000;98.0721282959
926.5000000000;98.0591964722
927.0000000000;98.0087432861
927.5000000000;98.0125122070
928.0000000000;98.1274642944
928.5000000000;98.1644287109
929.0000000000;98.0722198486
929.5000000000;98.0536270142
930.0000000000;98.1021118164
930.5000000000;98.1591339111
931.0000000000;98.2398986816
931.5000000000;98.2577285767
932.0000000000;98.1596984863
932.5000000000;98.1513900757
933.0000000000;98.2123260498
933.5000000000;98.1691131592
934.0000000000;98.1596832275
934.5000000000;98.2082824707
935.0000000000;98.1606903076
935.5000000000;98.1669845581
936.0000000000;98.3077087402
936.5000000000;98.3707656860
937.0000000000;98.3268585205
937.5000000000;98.2593917847
938.0000000000;98.2441253662
938.5000000000;98.2541961670
939.0000000000;98.2372360229
939.5000000000;98.3013000488
940.0000000000;98.4082260132
940.5000000000;98.3863830566
941.0000000000;98.3276519775
941.5000000000;98.3214797974
942.0000000000;98.3359985352
942.5000000000;98.3477096558
943.0000000000;98.3690719604
943.5000000000;98.4539260864
944.0000000000;98.5029602051
944.5000000000;98.4206314087
945.0000000000;98.3885650635
945.5000000000;98.4571075439
946.0000000000;98.5324707031
946.5000000000;98.5742416382
947.0000000000;98.5668411255
947.5000000000;98.5224380493
948.0000000000;98.5432052612
948.5000000000;98.6402282715
949.0000000000;98.6464004517
949.5000000000;98.5798873901
950.0000000000;98.5349273682
950.5000000000;98.5415267944
951.0000000000;98.5724334717
951.5000000000;98.5870513916
952.0000000000;98.6126785278
952.5000000000;98.6984329224
953.0000000000;98.8457565308
953.5000000000;98.8148574829
954.0000000000;98.6579971313
954.5000000000;98.7891921997
955.0000000000;98.9237136841
955.5000000000;98.8301010132
956.0000000000;98.8408126831
956.5000000000;98.9214553833
957.0000000000;98.9177932739
957.5000000000;98.9414520264
958.0000000000;99.0104904175
958.5000000000;99.0556259155
959.0000000000;99.0496978760
959.5000000000;98.9838409424
960.0000000000;98.8908767700
960.5000000000;98.9486694336
961.0000000000;99.1540603638
961.5000000000;99.2371368408
962.0000000000;99.1454772949
962.5000000000;99.0014114380
963.0000000000;99.0270462036
963.5000000000;99.1064682007
964.0000000000;99.0819396973
964.5000000000;99.1415176392
965.0000000000;99.1969528198
965.5000000000;99.0708160400
966.0000000000;99.0823364258
966.5000000000;99.2273864746
967.0000000000;99.1793899536
967.5000000000;99.0774993896
968.0000000000;99.1162872314
968.5000000000;99.3222961426
969.0000000000;99.3529739380
969.5000000000;99.1102600098
970.0000000000;99.0996246338
970.5000000000;99.2209548950
971.0000000000;99.1997909546
971.5000000000;99.1847000122
972.0000000000;99.2479782104
972.5000000000;99.3303070068
973.0000000000;99.2765655518
973.5000000000;99.1548843384
974.0000000000;99.1865005493
974.5000000000;99.2799911499
975.0000000000;99.3287429810
975.5000000000;99.3171997070
976.0000000000;99.2616653442
976.5000000000;99.2459411621
977.0000000000;99.3959579468
977.5000000000;99.4403839111
978.0000000000;99.2234039307
978.5000000000;99.1973342896
979.0000000000;99.3057098389
979.5000000000;99.2714157104
980.0000000000;99.2568130493
980.5000000000;99.3300704956
981.0000000000;99.3969802856
981.5000000000;99.3087692261
982.0000000000;99.1550140381
982.5000000000;99.2036514282
983.0000000000;99.2510910034
983.5000000000;99.2092132568
984.0000000000;99.3110427856
984.5000000000;99.3713226318
985.0000000000;99.2666244507
985.5000000000;99.3037796021
986.0000000000;99.4284515381
986.5000000000;99.4396820068
987.0000000000;99.3360137939
987.5000000000;99.2451934814
988.0000000000;99.2993164063
988.5000000000;99.4102401733
989.0000000000;99.4349441528
989.5000000000;99.3097000122
990.0000000000;99.3389892578
990.5000000000;99.4913024902
991.0000000000;99.3656616211
991.5000000000;99.3382949829
992.0000000000;99.5840759277
992.5000000000;99.6209640503
993.0000000000;99.4860916138
993.5000000000;99.4306411743
994.0000000000;99.5680923462
994.5000000000;99.5825805664
995.0000000000;99.2523345947
995.5000000000;99.1649398804
996.0000000000;99.3324737549
996.5000000000;99.3748168945
997.0000000000;99.3514022827
997.5000000000;99.4580688477
998.0000000000;99.7840347290
998.5000000000;99.7973480225
999.0000000000;99.4156188965
999.5000000000;99.2094650269
1000.0000000000;99.2766799927
1000.5000000000;99.4270095825
1001.0000000000;99.3730773926
1001.5000000000;99.3354492188
1002.0000000000;99.4803466797
1002.5000000000;99.4823608398
1003.0000000000;99.5351486206
1003.5000000000;99.8029556274
1004.0000000000;99.6497726440
1004.5000000000;99.3381500244
1005.0000000000;99.4825897217
1005.5000000000;99.5479431152
1006.0000000000;99.4539794922
1006.5000000000;99.5686187744
1007.0000000000;99.6304397583
1007.5000000000;99.5676498413
1008.0000000000;99.6258697510
1008.5000000000;99.6727905273
1009.0000000000;99.5850296021
1009.5000000000;99.4464569092
1010.0000000000;99.4635543823
1010.5000000000;99.6987915039
1011.0000000000;99.8893737793
1011.5000000000;99.7706222534
1012.0000000000;99.4512329102
1012.5000000000;99.6879501343
1013.0000000000;100.0241241455
1013.5000000000;99.7172164917
1014.0000000000;99.4769134521
1014.5000000000;99.5000686646
1015.0000000000;99.5081481934
1015.5000000000;99.6199645996
1016.0000000000;99.8179702759
1016.5000000000;99.8958587646
1017.0000000000;99.7791290283
1017.5000000000;99.5899353027
1018.0000000000;99.5562057495
1018.5000000000;99.4680480957
1019.0000000000;99.3014755249
1019.5000000000;99.4480285645
