182.5000000000;0.9027535915
183.0000000000;0.9343128800
183.5000000000;0.9743628502
184.0000000000;1.0054694414
184.5000000000;0.9929406047
185.0000000000;1.0282009840
185.5000000000;1.1783831120
186.0000000000;1.3029800653
186.5000000000;1.4311215878
187.0000000000;1.6959685087
187.5000000000;1.9087588787
188.0000000000;2.0398552418
188.5000000000;2.1669659615
189.0000000000;2.2734315395
189.5000000000;2.3867261410
190.0000000000;2.5170724392
190.5000000000;2.5651800632
191.0000000000;2.5845758915
191.5000000000;2.6656813622
192.0000000000;2.7458107471
192.5000000000;2.7902982235
193.0000000000;2.7977190018
193.5000000000;2.8003106117
194.0000000000;2.8358013630
194.5000000000;2.8666980267
195.0000000000;2.8612763882
195.5000000000;2.8655321598
196.0000000000;2.8907437325
196.5000000000;2.9107635021
197.0000000000;2.9172241688
197.5000000000;2.9200036526
198.0000000000;2.9591119289
198.5000000000;3.0301544666
199.0000000000;3.0544281006
199.5000000000;3.0578184128
200.0000000000;3.1078767776
200.5000000000;3.1355803013
201.0000000000;3.1098186970
201.5000000000;3.1338729858
202.0000000000;3.2036347389
202.5000000000;3.2239036560
203.0000000000;3.2072315216
203.5000000000;3.2015459538
204.0000000000;3.2152128220
204.5000000000;3.2324504852
205.0000000000;3.2165482044
205.5000000000;3.1904034615
206.0000000000;3.1891999245
206.5000000000;3.1726059914
207.0000000000;3.1313145161
207.5000000000;3.1301853657
208.0000000000;3.1623156071
208.5000000000;3.1643986702
209.0000000000;3.1518805027
209.5000000000;3.1559519768
210.0000000000;3.1620681286
210.5000000000;3.1504135132
211.0000000000;3.1127874851
211.5000000000;3.0918676853
212.0000000000;3.1224355698
212.5000000000;3.1549172401
213.0000000000;3.1580929756
213.5000000000;3.1681294441
214.0000000000;3.1785123348
214.5000000000;3.1623721123
215.0000000000;3.1545879841
215.5000000000;3.1782112122
216.0000000000;3.2076179981
216.5000000000;3.2198152542
217.0000000000;3.2090020180
217.5000000000;3.2145140171
218.0000000000;3.2673399448
218.5000000000;3.3316600323
219.0000000000;3.3570873737
219.5000000000;3.3171982765
220.0000000000;3.2821722031
220.5000000000;3.3165452480
221.0000000000;3.3643405437
221.5000000000;3.3679602146
222.0000000000;3.3451521397
222.5000000000;3.3199603558
223.0000000000;3.3076481819
223.5000000000;3.3071675301
224.0000000000;3.3152742386
224.5000000000;3.3346068859
225.0000000000;3.3501863480
225.5000000000;3.3272457123
226.0000000000;3.2794964314
226.5000000000;3.2397480011
227.0000000000;3.2250080109
227.5000000000;3.2321956158
228.0000000000;3.2325277328
228.5000000000;3.2201716900
229.0000000000;3.2047476768
229.5000000000;3.1770377159
230.0000000000;3.1496684551
230.5000000000;3.1808395386
231.0000000000;3.2482771873
231.5000000000;3.2335064411
232.0000000000;3.1770567894
232.5000000000;3.1582176685
233.0000000000;3.1846346855
233.5000000000;3.2212228775
234.0000000000;3.1884925365
234.5000000000;3.1527445316
235.0000000000;3.1989116669
235.5000000000;3.2475862503
236.0000000000;3.2314255238
236.5000000000;3.2128136158
237.0000000000;3.2207951546
237.5000000000;3.2500741482
238.0000000000;3.2686488628
238.5000000000;3.2496027946
239.0000000000;3.2088704109
239.5000000000;3.1908535957
240.0000000000;3.2456259727
240.5000000000;3.3146798611
241.0000000000;3.3011252880
241.5000000000;3.2709693909
242.0000000000;3.2690765858
242.5000000000;3.2768762112
243.0000000000;3.2602796555
243.5000000000;3.2063159943
244.0000000000;3.1916692257
244.5000000000;3.2337896824
245.0000000000;3.2229478359
245.5000000000;3.1696469784
246.0000000000;3.1706979275
246.5000000000;3.2167708874
247.0000000000;3.2594842911
247.5000000000;3.2339570522
248.0000000000;3.1662487984
248.5000000000;3.1485092640
249.0000000000;3.1557073593
249.5000000000;3.1319134235
250.0000000000;3.1039111614
250.5000000000;3.0998108387
251.0000000000;3.1245226860
251.5000000000;3.1379261017
252.0000000000;3.0871922970
252.5000000000;3.0474843979
253.0000000000;3.0634493828
253.5000000000;3.0772054195
254.0000000000;3.0698432922
254.5000000000;3.0692384243
255.0000000000;3.0397548676
255.5000000000;2.9708273411
256.0000000000;2.9558777809
256.5000000000;2.9994616508
257.0000000000;2.9983785152
257.5000000000;2.9695007801
258.0000000000;2.9734268188
258.5000000000;2.9544360638
259.0000000000;2.9060797691
259.5000000000;2.9151504040
260.0000000000;2.9691565037
260.5000000000;2.9820115566
261.0000000000;2.9335596561
261.5000000000;2.8637220860
262.0000000000;2.8332233429
262.5000000000;2.8340308666
263.0000000000;2.8166759014
263.5000000000;2.7796890736
264.0000000000;2.7409265041
264.5000000000;2.7154836655
265.0000000000;2.6964826584
265.5000000000;2.6619026661
266.0000000000;2.6325953007
266.5000000000;2.6317946911
267.0000000000;2.6369869709
267.5000000000;2.6321237087
268.0000000000;2.6251249313
268.5000000000;2.6189680099
269.0000000000;2.6122865677
269.5000000000;2.6054837704
270.0000000000;2.5991489887
270.5000000000;2.5932970047
271.0000000000;2.5885770321
271.5000000000;2.5856058598
272.0000000000;2.5808918476
272.5000000000;2.5719323158
273.0000000000;2.5627548695
273.5000000000;2.5529561043
274.0000000000;2.5368111134
274.5000000000;2.5151498318
275.0000000000;2.4928524494
275.5000000000;2.4767856598
276.0000000000;2.4682695866
276.5000000000;2.4601521492
277.0000000000;2.4448733330
277.5000000000;2.4192259312
278.0000000000;2.3981392384
278.5000000000;2.3885877132
279.0000000000;2.3738229275
279.5000000000;2.3509504795
280.0000000000;2.3310399055
280.5000000000;2.3191456795
281.0000000000;2.3116405010
281.5000000000;2.2885565758
282.0000000000;2.2535767555
282.5000000000;2.2341821194
283.0000000000;2.2245988846
283.5000000000;2.2075548172
284.0000000000;2.1843025684
284.5000000000;2.1590061188
285.0000000000;2.1339166164
285.5000000000;2.1145946980
286.0000000000;2.1054873466
286.5000000000;2.0947468281
287.0000000000;2.0743548870
287.5000000000;2.0522258282
288.0000000000;2.0333302021
288.5000000000;2.0188584328
289.0000000000;2.0082902908
289.5000000000;1.9992969036
290.0000000000;1.9868779182
290.5000000000;1.9733078480
291.0000000000;1.9671539068
291.5000000000;1.9635488987
292.0000000000;1.9540017843
292.5000000000;1.9397301674
293.0000000000;1.9258013964
293.5000000000;1.9189035892
294.0000000000;1.9164144993
294.5000000000;1.9118003845
295.0000000000;1.9061973095
295.5000000000;1.9009819031
296.0000000000;1.8946180344
296.5000000000;1.8873703480
297.0000000000;1.8809626102
297.5000000000;1.8764296770
298.0000000000;1.8732770681
298.5000000000;1.8683226109
299.0000000000;1.8615612984
299.5000000000;1.8560831547
300.0000000000;1.8529008627
300.5000000000;1.8508780003
301.0000000000;1.8456104994
301.5000000000;1.8385308981
302.0000000000;1.8374402523
302.5000000000;1.8379575014
303.0000000000;1.8322477341
303.5000000000;1.8254189491
304.0000000000;1.8212715387
304.5000000000;1.8173676729
305.0000000000;1.8137975931
305.5000000000;1.8119870424
306.0000000000;1.8096275330
306.5000000000;1.8049453497
307.0000000000;1.7994070053
307.5000000000;1.7942092419
308.0000000000;1.7899085283
308.5000000000;1.7864159346
309.0000000000;1.7832735777
309.5000000000;1.7797496319
310.0000000000;1.7754981518
310.5000000000;1.7706419230
311.0000000000;1.7654104233
311.5000000000;1.7603482008
312.0000000000;1.7567825317
312.5000000000;1.7531373501
313.0000000000;1.7443385124
313.5000000000;1.7347429991
314.0000000000;1.7315624952
314.5000000000;1.7290694714
315.0000000000;1.7221612930
315.5000000000;1.7132256031
316.0000000000;1.7047694921
316.5000000000;1.6984199286
317.0000000000;1.6939520836
317.5000000000;1.6896902323
318.0000000000;1.6823197603
318.5000000000;1.6742988825
319.0000000000;1.6721367836
319.5000000000;1.6682558060
320.0000000000;1.6554204226
320.5000000000;1.6459178925
321.0000000000;1.6438361406
321.5000000000;1.6398218870
322.0000000000;1.6317200661
322.5000000000;1.6221669912
323.0000000000;1.6143665314
323.5000000000;1.6090744734
324.0000000000;1.6032688618
324.5000000000;1.5961447954
325.0000000000;1.5886948109
325.5000000000;1.5818920135
326.0000000000;1.5761107206
326.5000000000;1.5706096888
327.0000000000;1.5639806986
327.5000000000;1.5551052094
328.0000000000;1.5471959114
328.5000000000;1.5423961878
329.0000000000;1.5367983580
329.5000000000;1.5294839144
330.0000000000;1.5232201815
330.5000000000;1.5180828571
331.0000000000;1.5127404928
331.5000000000;1.5057536364
332.0000000000;1.4987634420
332.5000000000;1.4963959455
333.0000000000;1.4953140020
333.5000000000;1.4897378683
334.0000000000;1.4820283651
334.5000000000;1.4755564928
335.0000000000;1.4721071720
335.5000000000;1.4700857401
336.0000000000;1.4663422108
336.5000000000;1.4608185291
337.0000000000;1.4547837973
337.5000000000;1.4501260519
338.0000000000;1.4474772215
338.5000000000;1.4462556839
339.0000000000;1.4447394609
339.5000000000;1.4413726330
340.0000000000;1.4360185862
340.5000000000;1.4310086966
341.0000000000;1.4299947023
341.5000000000;1.4307675362
342.0000000000;1.4294084311
342.5000000000;1.4245396852
343.0000000000;1.4189336300
343.5000000000;1.4185178280
344.0000000000;1.4205024242
344.5000000000;1.4195085764
345.0000000000;1.4174718857
345.5000000000;1.4161984921
346.0000000000;1.4150993824
346.5000000000;1.4143729210
347.0000000000;1.4144665003
347.5000000000;1.4143022299
348.0000000000;1.4136587381
348.5000000000;1.4142872095
349.0000000000;1.4151358604
349.5000000000;1.4138361216
350.0000000000;1.4131127596
350.5000000000;1.4152719975
351.0000000000;1.4183570147
351.5000000000;1.4200487137
352.0000000000;1.4189076424
352.5000000000;1.4180287123
353.0000000000;1.4202394485
353.5000000000;1.4234216213
354.0000000000;1.4259989262
354.5000000000;1.4279702902
355.0000000000;1.4305336475
355.5000000000;1.4345084429
356.0000000000;1.4379025698
356.5000000000;1.4400656223
357.0000000000;1.4427615404
357.5000000000;1.4470843077
358.0000000000;1.4528898001
358.5000000000;1.4568475485
359.0000000000;1.4576836824
359.5000000000;1.4590770006
360.0000000000;1.4636309147
360.5000000000;1.4706697464
361.0000000000;1.4781239033
361.5000000000;1.4853378534
362.0000000000;1.4892243147
362.5000000000;1.4908992052
363.0000000000;1.4953669310
363.5000000000;1.5024325848
364.0000000000;1.5101907253
364.5000000000;1.5173047781
365.0000000000;1.5225428343
365.5000000000;1.5255041122
366.0000000000;1.5303293467
366.5000000000;1.5397576094
367.0000000000;1.5481171608
367.5000000000;1.5539338589
368.0000000000;1.5614612103
368.5000000000;1.5708281994
369.0000000000;1.5796780586
369.5000000000;1.5847079754
370.0000000000;1.5880445242
370.5000000000;1.5985391140
371.0000000000;1.6100080013
371.5000000000;1.6116790771
372.0000000000;1.6153411865
372.5000000000;1.6269197464
373.0000000000;1.6344450712
373.5000000000;1.6389074326
374.0000000000;1.6489475965
374.5000000000;1.6578922272
375.0000000000;1.6619439125
375.5000000000;1.6712929010
376.0000000000;1.6846276522
376.5000000000;1.6919200420
377.0000000000;1.6978390217
377.5000000000;1.7071615458
378.0000000000;1.7135306597
378.5000000000;1.7190631628
379.0000000000;1.7323877811
379.5000000000;1.7433786392
380.0000000000;1.7428239584
380.5000000000;1.7441531420
381.0000000000;1.7535346746
381.5000000000;1.7649451494
382.0000000000;1.7701897621
382.5000000000;1.7673516273
383.0000000000;1.7750916481
383.5000000000;1.7945775986
384.0000000000;1.8003230095
384.5000000000;1.7938704491
385.0000000000;1.7914988995
385.5000000000;1.7984960079
386.0000000000;1.8114603758
386.5000000000;1.8181211948
387.0000000000;1.8197144270
387.5000000000;1.8243463039
388.0000000000;1.8303853273
388.5000000000;1.8343850374
389.0000000000;1.8340760469
389.5000000000;1.8307528496
390.0000000000;1.8282573223
390.5000000000;1.8293578625
391.0000000000;1.8326523304
391.5000000000;1.8304939270
392.0000000000;1.8260233402
392.5000000000;1.8284009695
393.0000000000;1.8316354752
393.5000000000;1.8291258812
394.0000000000;1.8232257366
394.5000000000;1.8197817802
395.0000000000;1.8240022659
395.5000000000;1.8270953894
396.0000000000;1.8212025166
396.5000000000;1.8152300119
397.0000000000;1.8132930994
397.5000000000;1.8121868372
398.0000000000;1.8090606928
398.5000000000;1.8027608395
399.0000000000;1.7954841852
399.5000000000;1.7884006500
400.0000000000;1.7813411951
400.5000000000;1.7752127647
401.0000000000;1.7710700035
401.5000000000;1.7683010101
402.0000000000;1.7645848989
402.5000000000;1.7563763857
403.0000000000;1.7438002825
403.5000000000;1.7297105789
404.0000000000;1.7196296453
404.5000000000;1.7133613825
405.0000000000;1.7032350302
405.5000000000;1.6919798851
406.0000000000;1.6853592396
406.5000000000;1.6777144670
407.0000000000;1.6645957232
407.5000000000;1.6481872797
408.0000000000;1.6331548691
408.5000000000;1.6229937077
409.0000000000;1.6115745306
409.5000000000;1.5959166288
410.0000000000;1.5825816393
410.5000000000;1.5713648796
411.0000000000;1.5577366352
411.5000000000;1.5440832376
412.0000000000;1.5321401358
412.5000000000;1.5184357166
413.0000000000;1.5042800903
413.5000000000;1.4926482439
414.0000000000;1.4789950848
414.5000000000;1.4611461163
415.0000000000;1.4460097551
415.5000000000;1.4337946177
416.0000000000;1.4184774160
416.5000000000;1.4031305313
417.0000000000;1.3911393881
417.5000000000;1.3770990372
418.0000000000;1.3603028059
418.5000000000;1.3448123932
419.0000000000;1.3298281431
419.5000000000;1.3142056465
420.0000000000;1.2990678549
420.5000000000;1.2845456600
421.0000000000;1.2701659203
421.5000000000;1.2561382055
422.0000000000;1.2420769930
422.5000000000;1.2270640135
423.0000000000;1.2121039629
423.5000000000;1.1991974115
424.0000000000;1.1859151125
424.5000000000;1.1689819098
425.0000000000;1.1519646645
425.5000000000;1.1379110813
426.0000000000;1.1241301298
426.5000000000;1.1094492674
427.0000000000;1.0956860781
427.5000000000;1.0834372044
428.0000000000;1.0709569454
428.5000000000;1.0566152334
429.0000000000;1.0414791107
429.5000000000;1.0282356739
430.0000000000;1.0157316923
430.5000000000;1.0022993088
431.0000000000;0.9886038899
431.5000000000;0.9754530787
432.0000000000;0.9633635283
432.5000000000;0.9511461258
433.0000000000;0.9380441904
433.5000000000;0.9254633784
434.0000000000;0.9143117666
434.5000000000;0.9028956294
435.0000000000;0.8902586699
435.5000000000;0.8778390884
436.0000000000;0.8661691546
436.5000000000;0.8549580574
437.0000000000;0.8441229463
437.5000000000;0.8333373666
438.0000000000;0.8224540353
438.5000000000;0.8116436005
439.0000000000;0.8010141253
439.5000000000;0.7905830145
440.0000000000;0.7801409364
440.5000000000;0.7696334720
441.0000000000;0.7598798275
441.5000000000;0.7513327599
442.0000000000;0.7423473001
442.5000000000;0.7322589755
443.0000000000;0.7221526504
443.5000000000;0.7127210498
444.0000000000;0.7039385438
444.5000000000;0.6952757239
445.0000000000;0.6865168214
445.5000000000;0.6776961088
446.0000000000;0.6691679955
446.5000000000;0.6609724760
447.0000000000;0.6525743008
447.5000000000;0.6440393925
448.0000000000;0.6358417273
448.5000000000;0.6278941631
449.0000000000;0.6201776862
449.5000000000;0.6128538847
450.0000000000;0.6055895686
450.5000000000;0.5980223417
451.0000000000;0.5904015899
451.5000000000;0.5829800367
452.0000000000;0.5757912993
452.5000000000;0.5689168572
453.0000000000;0.5623226762
453.5000000000;0.5556644201
454.0000000000;0.5488215089
454.5000000000;0.5420039892
455.0000000000;0.5355055332
455.5000000000;0.5294228196
456.0000000000;0.5231622458
456.5000000000;0.5166289806
457.0000000000;0.5106126666
457.5000000000;0.5050337911
458.0000000000;0.4993831515
458.5000000000;0.4937122464
459.0000000000;0.4879210293
459.5000000000;0.4820030928
460.0000000000;0.4761320651
460.5000000000;0.4703419507
461.0000000000;0.4646815658
461.5000000000;0.4592902362
462.0000000000;0.4539396167
462.5000000000;0.4486314654
463.0000000000;0.4438543618
463.5000000000;0.4393105209
464.0000000000;0.4344122708
464.5000000000;0.4293332398
465.0000000000;0.4243193567
465.5000000000;0.4193256795
466.0000000000;0.4145290256
466.5000000000;0.4099934399
467.0000000000;0.4052707553
467.5000000000;0.4004380405
468.0000000000;0.3959118426
468.5000000000;0.3915996253
469.0000000000;0.3871226013
469.5000000000;0.3823113441
470.0000000000;0.3775104582
470.5000000000;0.3731853664
471.0000000000;0.3692210317
471.5000000000;0.3653248549
472.0000000000;0.3613027632
472.5000000000;0.3572987318
473.0000000000;0.3536224663
473.5000000000;0.3500453830
474.0000000000;0.3461545110
474.5000000000;0.3419744670
475.0000000000;0.3379642069
475.5000000000;0.3344478309
476.0000000000;0.3310440481
476.5000000000;0.3274412155
477.0000000000;0.3238248229
477.5000000000;0.3202780187
478.0000000000;0.3168332875
478.5000000000;0.3135210574
479.0000000000;0.3102086782
479.5000000000;0.3069086075
480.0000000000;0.3037363291
480.5000000000;0.3006120324
481.0000000000;0.2974312007
481.5000000000;0.2942233682
482.0000000000;0.2911493480
482.5000000000;0.2882415652
483.0000000000;0.2854102552
483.5000000000;0.2825194001
484.0000000000;0.2796705663
484.5000000000;0.2772198021
485.0000000000;0.2742815018
485.5000000000;0.2707233727
486.0000000000;0.2691264451
486.5000000000;0.2691893876
487.0000000000;0.2669431865
487.5000000000;0.2619884908
488.0000000000;0.2584174275
488.5000000000;0.2561151981
489.0000000000;0.2536140680
489.5000000000;0.2511841953
490.0000000000;0.2490035743
490.5000000000;0.2468392700
491.0000000000;0.2445783168
491.5000000000;0.2422139645
492.0000000000;0.2397814542
492.5000000000;0.2375614345
493.0000000000;0.2358387262
493.5000000000;0.2340578288
494.0000000000;0.2317233980
494.5000000000;0.2292145491
495.0000000000;0.2269054055
495.5000000000;0.2249074578
496.0000000000;0.2230209410
496.5000000000;0.2211274952
497.0000000000;0.2193608433
497.5000000000;0.2175901830
498.0000000000;0.2156737596
498.5000000000;0.2140020579
499.0000000000;0.2126737982
499.5000000000;0.2110155821
500.0000000000;0.2089711577
500.5000000000;0.2070938945
501.0000000000;0.2055783272
501.5000000000;0.2042905390
502.0000000000;0.2027355731
502.5000000000;0.2009108663
503.0000000000;0.1992807835
503.5000000000;0.1978050768
504.0000000000;0.1962947845
504.5000000000;0.1947650164
505.0000000000;0.1932897866
505.5000000000;0.1919227242
506.0000000000;0.1905792952
506.5000000000;0.1891709715
507.0000000000;0.1877175122
507.5000000000;0.1863030046
508.0000000000;0.1850478351
508.5000000000;0.1838159859
509.0000000000;0.1824537665
509.5000000000;0.1810717136
510.0000000000;0.1797989607
510.5000000000;0.1786680818
511.0000000000;0.1775300950
511.5000000000;0.1763025820
512.0000000000;0.1751041561
512.5000000000;0.1739788204
513.0000000000;0.1728969067
513.5000000000;0.1717151105
514.0000000000;0.1704112291
514.5000000000;0.1692561358
515.0000000000;0.1682198048
515.5000000000;0.1670917869
516.0000000000;0.1659975201
516.5000000000;0.1650038511
517.0000000000;0.1639424115
517.5000000000;0.1628894657
518.0000000000;0.1620201021
518.5000000000;0.1610971987
519.0000000000;0.1600061357
519.5000000000;0.1590187550
520.0000000000;0.1581203043
520.5000000000;0.1571264118
521.0000000000;0.1561374515
521.5000000000;0.1552213132
522.0000000000;0.1542354971
522.5000000000;0.1532257944
523.0000000000;0.1523447186
523.5000000000;0.1514819860
524.0000000000;0.1505609155
524.5000000000;0.1496819556
525.0000000000;0.1488345265
525.5000000000;0.1479575932
526.0000000000;0.1471415013
526.5000000000;0.1464157403
527.0000000000;0.1456634253
527.5000000000;0.1448493153
528.0000000000;0.1440027952
528.5000000000;0.1431658417
529.0000000000;0.1423538923
529.5000000000;0.1415362507
530.0000000000;0.1407729089
530.5000000000;0.1401077509
531.0000000000;0.1393114626
531.5000000000;0.1383731961
532.0000000000;0.1376256645
532.5000000000;0.1369957924
533.0000000000;0.1362754703
533.5000000000;0.1355988979
534.0000000000;0.1349958777
534.5000000000;0.1342974603
535.0000000000;0.1335298717
535.5000000000;0.1327976137
536.0000000000;0.1320907921
536.5000000000;0.1313895732
537.0000000000;0.1307002902
537.5000000000;0.1300237924
538.0000000000;0.1293704212
538.5000000000;0.1287911534
539.0000000000;0.1282407045
539.5000000000;0.1275825500
540.0000000000;0.1268516630
540.5000000000;0.1261377633
541.0000000000;0.1254469007
541.5000000000;0.1248067319
542.0000000000;0.1242666543
542.5000000000;0.1237122715
543.0000000000;0.1230295971
543.5000000000;0.1223265976
544.0000000000;0.1216715202
544.5000000000;0.1210396141
545.0000000000;0.1204555258
545.5000000000;0.1199261546
546.0000000000;0.1193646342
546.5000000000;0.1187265888
547.0000000000;0.1180395037
547.5000000000;0.1174613386
548.0000000000;0.1170480251
548.5000000000;0.1165451035
549.0000000000;0.1158706620
549.5000000000;0.1151459664
550.0000000000;0.1145141050
550.5000000000;0.1139822453
551.0000000000;0.1133203134
551.5000000000;0.1126379892
552.0000000000;0.1122270972
552.5000000000;0.1117694825
553.0000000000;0.1110754758
553.5000000000;0.1105326414
554.0000000000;0.1101293713
554.5000000000;0.1095815822
555.0000000000;0.1089932695
555.5000000000;0.1084841788
556.0000000000;0.1079836115
556.5000000000;0.1074543521
557.0000000000;0.1069053039
557.5000000000;0.1063638777
558.0000000000;0.1058327258
558.5000000000;0.1052703932
559.0000000000;0.1046974063
559.5000000000;0.1041726768
560.0000000000;0.1036985889
560.5000000000;0.1032394767
561.0000000000;0.1027420685
561.5000000000;0.1022384092
562.0000000000;0.1017680764
562.5000000000;0.1012259126
563.0000000000;0.1006113440
563.5000000000;0.1000733227
564.0000000000;0.0996045098
564.5000000000;0.0991377234
565.0000000000;0.0986666158
565.5000000000;0.0981708914
566.0000000000;0.0976204500
566.5000000000;0.0970893949
567.0000000000;0.0966524705
567.5000000000;0.0962386578
568.0000000000;0.0958506614
568.5000000000;0.0956077725
569.0000000000;0.0955174193
569.5000000000;0.0954529569
570.0000000000;0.0951181948
570.5000000000;0.0945655257
571.0000000000;0.0942486227
571.5000000000;0.0944818631
572.0000000000;0.0947715119
572.5000000000;0.0939621106
573.0000000000;0.0926060826
573.5000000000;0.0920473859
574.0000000000;0.0920204446
574.5000000000;0.0919634923
575.0000000000;0.0917384699
575.5000000000;0.0913820416
576.0000000000;0.0909286812
576.5000000000;0.0900244936
577.0000000000;0.0889658183
577.5000000000;0.0891139656
578.0000000000;0.0895768031
578.5000000000;0.0886390582
579.0000000000;0.0870528445
579.5000000000;0.0860577822
580.0000000000;0.0862795264
580.5000000000;0.0868970230
581.0000000000;0.0869088992
581.5000000000;0.0874435827
582.0000000000;0.0882954076
582.5000000000;0.0876485556
583.0000000000;0.0860549733
583.5000000000;0.0852365494
584.0000000000;0.0853583142
584.5000000000;0.0857186317
585.0000000000;0.0854188651
585.5000000000;0.0847366676
586.0000000000;0.0842053890
586.5000000000;0.0836814493
587.0000000000;0.0831875056
587.5000000000;0.0829724073
588.0000000000;0.0829431862
588.5000000000;0.0828272626
589.0000000000;0.0822570994
589.5000000000;0.0813442245
590.0000000000;0.0806497261
590.5000000000;0.0802394226
591.0000000000;0.0799661875
591.5000000000;0.0797084048
592.0000000000;0.0793820024
592.5000000000;0.0789956525
593.0000000000;0.0787568539
593.5000000000;0.0785849094
594.0000000000;0.0779885724
594.5000000000;0.0773705766
595.0000000000;0.0773428679
595.5000000000;0.0771387964
596.0000000000;0.0763962790
596.5000000000;0.0757426843
597.0000000000;0.0753746182
597.5000000000;0.0751023963
598.0000000000;0.0746117011
598.5000000000;0.0739454925
599.0000000000;0.0735496208
599.5000000000;0.0732503757
600.0000000000;0.0727924779
600.5000000000;0.0725339279
601.0000000000;0.0725006536
601.5000000000;0.0723179355
602.0000000000;0.0718650520
602.5000000000;0.0712977946
603.0000000000;0.0710952953
603.5000000000;0.0710958838
604.0000000000;0.0707133859
604.5000000000;0.0701071396
605.0000000000;0.0696272328
605.5000000000;0.0693301558
606.0000000000;0.0691559911
606.5000000000;0.0690187514
607.0000000000;0.0688250437
607.5000000000;0.0685707107
608.0000000000;0.0683901012
608.5000000000;0.0682005584
609.0000000000;0.0678946227
609.5000000000;0.0677923635
610.0000000000;0.0678999126
610.5000000000;0.0677639917
611.0000000000;0.0675132647
611.5000000000;0.0674312860
612.0000000000;0.0673438162
612.5000000000;0.0671777204
613.0000000000;0.0670533627
613.5000000000;0.0669948831
614.0000000000;0.0669368580
614.5000000000;0.0667277873
615.0000000000;0.0664588884
615.5000000000;0.0663914308
616.0000000000;0.0662988573
616.5000000000;0.0659830868
617.0000000000;0.0656645522
617.5000000000;0.0655110255
618.0000000000;0.0655290708
618.5000000000;0.0654982999
619.0000000000;0.0653368458
619.5000000000;0.0652706921
620.0000000000;0.0652438775
620.5000000000;0.0650478229
621.0000000000;0.0646300986
621.5000000000;0.0642158315
622.0000000000;0.0642450303
622.5000000000;0.0643982887
623.0000000000;0.0642058477
623.5000000000;0.0638713837
624.0000000000;0.0635762513
624.5000000000;0.0633283630
625.0000000000;0.0629963651
625.5000000000;0.0625472143
626.0000000000;0.0622949786
626.5000000000;0.0622221306
627.0000000000;0.0620371103
627.5000000000;0.0618320107
628.0000000000;0.0616775937
628.5000000000;0.0613773093
629.0000000000;0.0610328242
629.5000000000;0.0608718134
630.0000000000;0.0606580712
630.5000000000;0.0602581166
631.0000000000;0.0598830767
631.5000000000;0.0596105419
632.0000000000;0.0594114363
632.5000000000;0.0592491068
633.0000000000;0.0590797216
633.5000000000;0.0588594861
634.0000000000;0.0586026423
634.5000000000;0.0583540164
635.0000000000;0.0581613667
635.5000000000;0.0580268279
636.0000000000;0.0579059869
636.5000000000;0.0577624738
637.0000000000;0.0575852580
637.5000000000;0.0574104488
638.0000000000;0.0572480597
638.5000000000;0.0570717119
639.0000000000;0.0568326749
639.5000000000;0.0565658547
640.0000000000;0.0564315692
640.5000000000;0.0563328117
641.0000000000;0.0560945310
641.5000000000;0.0558947809
642.0000000000;0.0558253266
642.5000000000;0.0557587221
643.0000000000;0.0556629077
643.5000000000;0.0555539727
644.0000000000;0.0554245040
644.5000000000;0.0552903302
645.0000000000;0.0551903024
645.5000000000;0.0551040955
646.0000000000;0.0550015382
646.5000000000;0.0548883639
647.0000000000;0.0547824651
647.5000000000;0.0547006689
648.0000000000;0.0546257272
648.5000000000;0.0545497388
649.0000000000;0.0544938408
649.5000000000;0.0544218831
650.0000000000;0.0542854369
650.5000000000;0.0541445464
651.0000000000;0.0540562719
651.5000000000;0.0540274419
652.0000000000;0.0539797507
652.5000000000;0.0538333841
653.0000000000;0.0536281653
653.5000000000;0.0535451807
654.0000000000;0.0537045226
654.5000000000;0.0530047342
655.0000000000;0.0516572185
655.5000000000;0.0533220395
656.0000000000;0.0556852743
656.5000000000;0.0594710708
657.0000000000;0.0623061955
657.5000000000;0.0556597672
658.0000000000;0.0513027571
658.5000000000;0.0522803105
659.0000000000;0.0522132628
659.5000000000;0.0515704788
660.0000000000;0.0513409711
660.5000000000;0.0511143394
661.0000000000;0.0508902371
661.5000000000;0.0507885478
662.0000000000;0.0505848527
662.5000000000;0.0502991378
663.0000000000;0.0501806960
663.5000000000;0.0500455201
664.0000000000;0.0497361906
664.5000000000;0.0494760275
665.0000000000;0.0492929369
665.5000000000;0.0490531027
666.0000000000;0.0487541668
666.5000000000;0.0484507456
667.0000000000;0.0482186116
667.5000000000;0.0480300635
668.0000000000;0.0478181913
668.5000000000;0.0476005077
669.0000000000;0.0474042110
669.5000000000;0.0472377203
670.0000000000;0.0470531732
670.5000000000;0.0468250327
671.0000000000;0.0466358401
671.5000000000;0.0464715958
672.0000000000;0.0462481081
672.5000000000;0.0460458659
673.0000000000;0.0459071510
673.5000000000;0.0457190834
674.0000000000;0.0454878435
674.5000000000;0.0452885926
675.0000000000;0.0451137573
675.5000000000;0.0449519344
676.0000000000;0.0448079407
676.5000000000;0.0446430519
677.0000000000;0.0444291122
677.5000000000;0.0442262031
678.0000000000;0.0440618470
678.5000000000;0.0439192578
679.0000000000;0.0438147597
679.5000000000;0.0437409543
680.0000000000;0.0436166748
680.5000000000;0.0434244946
681.0000000000;0.0432196222
681.5000000000;0.0431234315
682.0000000000;0.0431081802
682.5000000000;0.0429340266
683.0000000000;0.0426673405
683.5000000000;0.0425012484
684.0000000000;0.0424545892
684.5000000000;0.0425066352
685.0000000000;0.0426129326
685.5000000000;0.0426020250
686.0000000000;0.0423691869
686.5000000000;0.0420683101
687.0000000000;0.0418661125
687.5000000000;0.0418410487
688.0000000000;0.0417739563
688.5000000000;0.0415744334
689.0000000000;0.0414726324
689.5000000000;0.0414739698
690.0000000000;0.0414534546
690.5000000000;0.0413635001
691.0000000000;0.0412459746
691.5000000000;0.0412024707
692.0000000000;0.0411553383
692.5000000000;0.0410356484
693.0000000000;0.0409684293
693.5000000000;0.0409066193
694.0000000000;0.0406966917
694.5000000000;0.0405026600
695.0000000000;0.0404233709
695.5000000000;0.0402937382
696.0000000000;0.0401344337
696.5000000000;0.0400582924
697.0000000000;0.0400319435
697.5000000000;0.0399587713
698.0000000000;0.0397348255
698.5000000000;0.0394853167
699.0000000000;0.0393416397
699.5000000000;0.0391928032
700.0000000000;0.0390131176
700.5000000000;0.0388604887
701.0000000000;0.0386773162
701.5000000000;0.0384649448
702.0000000000;0.0383674838
702.5000000000;0.0382947959
703.0000000000;0.0380782709
703.5000000000;0.0378152616
704.0000000000;0.0376073383
704.5000000000;0.0374725424
705.0000000000;0.0373127796
705.5000000000;0.0370804667
706.0000000000;0.0369571857
706.5000000000;0.0369551368
707.0000000000;0.0369226187
707.5000000000;0.0367636941
708.0000000000;0.0364783630
708.5000000000;0.0361904390
709.0000000000;0.0359266475
709.5000000000;0.0356636643
710.0000000000;0.0354511514
710.5000000000;0.0352880359
711.0000000000;0.0351040214
711.5000000000;0.0349185988
712.0000000000;0.0347635262
712.5000000000;0.0346044749
713.0000000000;0.0344554000
713.5000000000;0.0343433134
714.0000000000;0.0341434255
714.5000000000;0.0338554345
715.0000000000;0.0337113999
715.5000000000;0.0336293690
716.0000000000;0.0334175564
716.5000000000;0.0331414826
717.0000000000;0.0328782871
717.5000000000;0.0326572061
718.0000000000;0.0324900858
718.5000000000;0.0323599987
719.0000000000;0.0322062448
719.5000000000;0.0319769233
720.0000000000;0.0316668637
720.5000000000;0.0314329639
721.0000000000;0.0313158110
721.5000000000;0.0311443675
722.0000000000;0.0309250038
722.5000000000;0.0307374615
723.0000000000;0.0305852741
723.5000000000;0.0304514449
724.0000000000;0.0303108394
724.5000000000;0.0301530939
725.0000000000;0.0300077181
725.5000000000;0.0299524851
726.0000000000;0.0299242921
726.5000000000;0.0298038274
727.0000000000;0.0296242349
727.5000000000;0.0294209141
728.0000000000;0.0291930474
728.5000000000;0.0290155876
729.0000000000;0.0289246570
729.5000000000;0.0287826657
730.0000000000;0.0286143739
730.5000000000;0.0285707023
731.0000000000;0.0286036916
731.5000000000;0.0285797436
732.0000000000;0.0283527467
732.5000000000;0.0280452911
733.0000000000;0.0278671291
733.5000000000;0.0277802274
734.0000000000;0.0277425293
734.5000000000;0.0277554113
735.0000000000;0.0277763028
735.5000000000;0.0277315471
736.0000000000;0.0275342781
736.5000000000;0.0273013115
737.0000000000;0.0272205994
737.5000000000;0.0271241963
738.0000000000;0.0269028414
738.5000000000;0.0266683996
739.0000000000;0.0265839417
739.5000000000;0.0267110970
740.0000000000;0.0268348437
740.5000000000;0.0267964620
741.0000000000;0.0265672281
741.5000000000;0.0263495594
742.0000000000;0.0262740422
742.5000000000;0.0262143556
743.0000000000;0.0260953307
743.5000000000;0.0259338710
744.0000000000;0.0258810557
744.5000000000;0.0259031784
745.0000000000;0.0257851947
745.5000000000;0.0256674420
746.0000000000;0.0256755129
746.5000000000;0.0256108902
747.0000000000;0.0255074538
747.5000000000;0.0255225115
748.0000000000;0.0254988801
748.5000000000;0.0253691301
749.0000000000;0.0252763741
749.5000000000;0.0251962412
750.0000000000;0.0250993073
750.5000000000;0.0251502488
751.0000000000;0.0251996461
751.5000000000;0.0249247272
752.0000000000;0.0246850792
752.5000000000;0.0247291643
753.0000000000;0.0247864239
753.5000000000;0.0247946065
754.0000000000;0.0247851759
754.5000000000;0.0246208198
755.0000000000;0.0243388657
755.5000000000;0.0241703670
756.0000000000;0.0241712853
756.5000000000;0.0242845342
757.0000000000;0.0243783090
757.5000000000;0.0243579093
758.0000000000;0.0242043678
758.5000000000;0.0240591615
759.0000000000;0.0239693597
759.5000000000;0.0238307416
760.0000000000;0.0235873461
760.5000000000;0.0232999586
761.0000000000;0.0232183095
761.5000000000;0.0231737401
762.0000000000;0.0228104778
762.5000000000;0.0225210320
763.0000000000;0.0225575510
763.5000000000;0.0226702541
764.0000000000;0.0226303209
764.5000000000;0.0223747455
765.0000000000;0.0221884511
765.5000000000;0.0220737737
766.0000000000;0.0217960216
766.5000000000;0.0214280766
767.0000000000;0.0211495496
767.5000000000;0.0211287234
768.0000000000;0.0212740265
768.5000000000;0.0213926211
769.0000000000;0.0214326251
769.5000000000;0.0213081297
770.0000000000;0.0209296048
770.5000000000;0.0205615070
771.0000000000;0.0204045940
771.5000000000;0.0202888437
772.0000000000;0.0200733766
772.5000000000;0.0197473988
773.0000000000;0.0195549671
773.5000000000;0.0195288155
774.0000000000;0.0194386058
774.5000000000;0.0192136914
775.0000000000;0.0189202745
775.5000000000;0.0187486354
776.0000000000;0.0187097099
776.5000000000;0.0186820328
777.0000000000;0.0185691565
777.5000000000;0.0183897950
778.0000000000;0.0182775743
778.5000000000;0.0182228908
779.0000000000;0.0181910098
779.5000000000;0.0182247311
780.0000000000;0.0182097964
780.5000000000;0.0180011131
781.0000000000;0.0178483631
781.5000000000;0.0178266503
782.0000000000;0.0176799670
782.5000000000;0.0175279230
783.0000000000;0.0175128728
783.5000000000;0.0173963215
784.0000000000;0.0171641335
784.5000000000;0.0169919264
785.0000000000;0.0168769378
785.5000000000;0.0167893078
786.0000000000;0.0167231690
786.5000000000;0.0166331120
787.0000000000;0.0164819341
787.5000000000;0.0163031686
788.0000000000;0.0162255000
788.5000000000;0.0163620021
789.0000000000;0.0164069012
789.5000000000;0.0162233468
790.0000000000;0.0160816275
790.5000000000;0.0160033684
791.0000000000;0.0159060601
791.5000000000;0.0158304889
792.0000000000;0.0157315396
792.5000000000;0.0155244563
793.0000000000;0.0154071935
793.5000000000;0.0154915582
794.0000000000;0.0156200435
794.5000000000;0.0156416763
795.0000000000;0.0154885435
795.5000000000;0.0152741764
796.0000000000;0.0150751742
796.5000000000;0.0149121247
797.0000000000;0.0148396604
797.5000000000;0.0148638608
798.0000000000;0.0149015803
798.5000000000;0.0148951048
799.0000000000;0.0148223927
799.5000000000;0.0147131933
800.0000000000;0.0146144070
800.5000000000;0.0145710949
801.0000000000;0.0145759713
801.5000000000;0.0145899337
802.0000000000;0.0145515501
802.5000000000;0.0144277392
803.0000000000;0.0142515218
803.5000000000;0.0141789159
804.0000000000;0.0141945947
804.5000000000;0.0141354306
805.0000000000;0.0140332822
805.5000000000;0.0139980083
806.0000000000;0.0141287921
806.5000000000;0.0142483227
807.0000000000;0.0141386930
807.5000000000;0.0139154969
808.0000000000;0.0137684774
808.5000000000;0.0138238855
809.0000000000;0.0138334520
809.5000000000;0.0136729004
810.0000000000;0.0135923196
810.5000000000;0.0136299739
811.0000000000;0.0136748729
811.5000000000;0.0136071937
812.0000000000;0.0134538123
812.5000000000;0.0133578191
813.0000000000;0.0133377202
813.5000000000;0.0133713102
814.0000000000;0.0134283090
814.5000000000;0.0133870728
815.0000000000;0.0132040353
815.5000000000;0.0131700169
816.0000000000;0.0132736014
816.5000000000;0.0132438205
817.0000000000;0.0131299952
817.5000000000;0.0130294207
818.0000000000;0.0129587855
818.5000000000;0.0129027842
819.0000000000;0.0128493859
819.5000000000;0.0128279934
820.0000000000;0.0128644016
820.5000000000;0.0129448371
821.0000000000;0.0129262190
821.5000000000;0.0127807101
822.0000000000;0.0126795769
822.5000000000;0.0126599008
823.0000000000;0.0126623288
823.5000000000;0.0125897899
824.0000000000;0.0124955252
824.5000000000;0.0125069376
825.0000000000;0.0125304433
825.5000000000;0.0124908444
826.0000000000;0.0124236243
826.5000000000;0.0124208825
827.0000000000;0.0124945305
827.5000000000;0.0124448380
828.0000000000;0.0122969942
828.5000000000;0.0122143859
829.0000000000;0.0121612381
829.5000000000;0.0120847812
830.0000000000;0.0119795687
830.5000000000;0.0118987383
831.0000000000;0.0118686687
831.5000000000;0.0118195415
832.0000000000;0.0117779523
832.5000000000;0.0118115228
833.0000000000;0.0118705351
833.5000000000;0.0119044539
834.0000000000;0.0119067365
834.5000000000;0.0119671226
835.0000000000;0.0120703075
835.5000000000;0.0119772544
836.0000000000;0.0118027292
836.5000000000;0.0117622139
837.0000000000;0.0116556296
837.5000000000;0.0115384730
838.0000000000;0.0116811143
838.5000000000;0.0117072063
839.0000000000;0.0114550451
839.5000000000;0.0114044575
840.0000000000;0.0114921117
840.5000000000;0.0114657031
841.0000000000;0.0114442930
841.5000000000;0.0114780273
842.0000000000;0.0115125719
842.5000000000;0.0115483496
843.0000000000;0.0115366122
843.5000000000;0.0113735702
844.0000000000;0.0112560391
844.5000000000;0.0113303764
845.0000000000;0.0113172866
845.5000000000;0.0112365801
846.0000000000;0.0112865567
846.5000000000;0.0112865614
847.0000000000;0.0112001393
847.5000000000;0.0112360483
848.0000000000;0.0112753445
848.5000000000;0.0112211499
849.0000000000;0.0112740332
849.5000000000;0.0113610551
850.0000000000;0.0113073401
850.5000000000;0.0112705277
851.0000000000;0.0113229705
851.5000000000;0.0113770785
852.0000000000;0.0113618197
852.5000000000;0.0113455756
853.0000000000;0.0115549928
853.5000000000;0.0117267910
854.0000000000;0.0115724839
854.5000000000;0.0114754150
855.0000000000;0.0114977807
855.5000000000;0.0113928253
856.0000000000;0.0113253556
856.5000000000;0.0113698719
857.0000000000;0.0113400770
857.5000000000;0.0113323815
858.0000000000;0.0114384759
858.5000000000;0.0114448871
859.0000000000;0.0114009557
859.5000000000;0.0114681628
860.0000000000;0.0114136944
860.5000000000;0.0112376101
861.0000000000;0.0112466868
861.5000000000;0.0113313226
862.0000000000;0.0113373296
862.5000000000;0.0113233058
863.0000000000;0.0112908855
863.5000000000;0.0112475948
864.0000000000;0.0113383159
864.5000000000;0.0114264609
865.0000000000;0.0112287086
865.5000000000;0.0111512151
866.0000000000;0.0113628581
866.5000000000;0.0114370678
867.0000000000;0.0113742044
867.5000000000;0.0113371806
868.0000000000;0.0113364551
868.5000000000;0.0113289310
869.0000000000;0.0112633817
869.5000000000;0.0111530237
870.0000000000;0.0110941678
870.5000000000;0.0112053426
871.0000000000;0.0112784849
871.5000000000;0.0112004355
872.0000000000;0.0112266215
872.5000000000;0.0113582695
873.0000000000;0.0114311045
873.5000000000;0.0113274148
874.0000000000;0.0111876260
874.5000000000;0.0112683289
875.0000000000;0.0113031855
875.5000000000;0.0111722602
876.0000000000;0.0111402785
876.5000000000;0.0111907469
877.0000000000;0.0112092765
877.5000000000;0.0111852093
878.0000000000;0.0111335749
878.5000000000;0.0111176251
879.0000000000;0.0113215782
879.5000000000;0.0115610920
880.0000000000;0.0113749709
880.5000000000;0.0110858670
881.0000000000;0.0109884050
881.5000000000;0.0108816149
882.0000000000;0.0108450642
882.5000000000;0.0109875435
883.0000000000;0.0110483980
883.5000000000;0.0110005289
884.0000000000;0.0109953750
884.5000000000;0.0109543642
885.0000000000;0.0108854622
885.5000000000;0.0109375212
886.0000000000;0.0109880175
886.5000000000;0.0109047443
887.0000000000;0.0107615776
887.5000000000;0.0107903071
888.0000000000;0.0110677965
888.5000000000;0.0110167591
889.0000000000;0.0107192714
889.5000000000;0.0107972678
890.0000000000;0.0109809190
890.5000000000;0.0109741185
891.0000000000;0.0108184041
891.5000000000;0.0106845852
892.0000000000;0.0106873317
892.5000000000;0.0107279522
893.0000000000;0.0106821414
893.5000000000;0.0105291447
894.0000000000;0.0105584105
894.5000000000;0.0106855286
895.0000000000;0.0105264280
895.5000000000;0.0104114711
896.0000000000;0.0105520338
896.5000000000;0.0106508248
897.0000000000;0.0105256932
897.5000000000;0.0102596721
898.0000000000;0.0103231100
898.5000000000;0.0105909035
899.0000000000;0.0106087932
899.5000000000;0.0104186079
900.0000000000;0.0101748714
900.5000000000;0.0100280922
901.0000000000;0.0100541478
901.5000000000;0.0101855816
902.0000000000;0.0102046011
902.5000000000;0.0101410262
903.0000000000;0.0101101827
903.5000000000;0.0101166274
904.0000000000;0.0101816896
904.5000000000;0.0103034126
905.0000000000;0.0103139617
905.5000000000;0.0101431943
906.0000000000;0.0098950807
906.5000000000;0.0097962581
907.0000000000;0.0099025369
907.5000000000;0.0099569466
908.0000000000;0.0099290879
908.5000000000;0.0098856250
909.0000000000;0.0098037589
909.5000000000;0.0096694073
910.0000000000;0.0095374286
910.5000000000;0.0096384985
911.0000000000;0.0098789334
911.5000000000;0.0098528713
912.0000000000;0.0096618878
912.5000000000;0.0094930511
913.0000000000;0.0093800537
913.5000000000;0.0094197737
914.0000000000;0.0095696077
914.5000000000;0.0094094854
915.0000000000;0.0092490716
915.5000000000;0.0096222647
916.0000000000;0.0098144040
916.5000000000;0.0095588053
917.0000000000;0.0093204034
917.5000000000;0.0092596626
918.0000000000;0.0092803566
918.5000000000;0.0091187684
919.0000000000;0.0089783687
919.5000000000;0.0090652136
920.0000000000;0.0090431757
920.5000000000;0.0088891713
921.0000000000;0.0088191964
921.5000000000;0.0089019071
922.0000000000;0.0089782560
922.5000000000;0.0087927599
923.0000000000;0.0086229639
923.5000000000;0.0085882340
924.0000000000;0.0084094107
924.5000000000;0.0084140087
925.0000000000;0.0087660830
925.5000000000;0.0087312078
926.0000000000;0.0084544104
926.5000000000;0.0085116578
927.0000000000;0.0087351659
927.5000000000;0.0087184822
928.0000000000;0.0082094325
928.5000000000;0.0080458717
929.0000000000;0.0084539903
929.5000000000;0.0085363453
930.0000000000;0.0083216522
930.5000000000;0.0080692777
931.0000000000;0.0077121076
931.5000000000;0.0076332814
932.0000000000;0.0080667762
932.5000000000;0.0081035392
933.0000000000;0.0078339865
933.5000000000;0.0080251489
934.0000000000;0.0080668498
934.5000000000;0.0078518894
935.0000000000;0.0080623915
935.5000000000;0.0080345590
936.0000000000;0.0074124183
936.5000000000;0.0071339644
937.0000000000;0.0073278463
937.5000000000;0.0076259142
938.0000000000;0.0076933941
938.5000000000;0.0076488797
939.0000000000;0.0077238684
939.5000000000;0.0074407239
940.0000000000;0.0069686016
940.5000000000;0.0070650056
941.0000000000;0.0073243412
941.5000000000;0.0073515894
942.0000000000;0.0072874771
942.5000000000;0.0072357650
943.0000000000;0.0071414160
943.5000000000;0.0067669740
944.0000000000;0.0065507153
944.5000000000;0.0069138482
945.0000000000;0.0070553659
945.5000000000;0.0067529217
946.0000000000;0.0064206375
946.5000000000;0.0062365583
947.0000000000;0.0062691728
947.5000000000;0.0064648418
948.0000000000;0.0063733100
948.5000000000;0.0059459312
949.0000000000;0.0059187706
949.5000000000;0.0062116827
950.0000000000;0.0064098118
950.5000000000;0.0063807182
951.0000000000;0.0062445095
951.5000000000;0.0061801164
952.0000000000;0.0060672597
952.5000000000;0.0056897397
953.0000000000;0.0050419653
953.5000000000;0.0051777544
954.0000000000;0.0058677183
954.5000000000;0.0052905576
955.0000000000;0.0046995995
955.5000000000;0.0051107500
956.0000000000;0.0050636930
956.5000000000;0.0047095125
957.0000000000;0.0047255731
957.5000000000;0.0046217092
958.0000000000;0.0043187975
958.5000000000;0.0041208481
959.0000000000;0.0041468502
959.5000000000;0.0044356990
960.0000000000;0.0048437631
960.5000000000;0.0045900294
961.0000000000;0.0036894861
961.5000000000;0.0033257832
962.0000000000;0.0037270924
962.5000000000;0.0043586013
963.0000000000;0.0042461716
963.5000000000;0.0038979873
964.0000000000;0.0040055034
964.5000000000;0.0037444413
965.0000000000;0.0035016667
965.5000000000;0.0040542595
966.0000000000;0.0040037716
966.5000000000;0.0033684459
967.0000000000;0.0035785616
967.5000000000;0.0040249475
968.0000000000;0.0038549704
968.5000000000;0.0029532386
969.0000000000;0.0028191220
969.5000000000;0.0038813977
970.0000000000;0.0039279847
970.5000000000;0.0033966084
971.0000000000;0.0034892382
971.5000000000;0.0035553200
972.0000000000;0.0032783211
972.5000000000;0.0029182131
973.0000000000;0.0031532496
973.5000000000;0.0036858888
974.0000000000;0.0035474456
974.5000000000;0.0031382747
975.0000000000;0.0029250644
975.5000000000;0.0029755400
976.0000000000;0.0032184487
976.5000000000;0.0032872511
977.0000000000;0.0026312617
977.5000000000;0.0024372174
978.0000000000;0.0033858898
978.5000000000;0.0034999852
979.0000000000;0.0030257786
979.5000000000;0.0031757881
980.0000000000;0.0032396612
980.5000000000;0.0029192530
981.0000000000;0.0026267995
981.5000000000;0.0030123987
982.0000000000;0.0036853189
982.5000000000;0.0034723373
983.0000000000;0.0032646940
983.5000000000;0.0034479829
984.0000000000;0.0030024722
984.5000000000;0.0027389461
985.0000000000;0.0031967445
985.5000000000;0.0030342073
986.0000000000;0.0024893275
986.5000000000;0.0024402875
987.0000000000;0.0028932726
987.5000000000;0.0032905091
988.0000000000;0.0030537497
988.5000000000;0.0025688668
989.0000000000;0.0024609712
989.5000000000;0.0030083163
990.0000000000;0.0028802690
990.5000000000;0.0022148804
991.0000000000;0.0027636713
991.5000000000;0.0028832953
992.0000000000;0.0018101130
992.5000000000;0.0016492764
993.0000000000;0.0022376364
993.5000000000;0.0024797646
994.0000000000;0.0018798010
994.5000000000;0.0018166120
995.0000000000;0.0032592677
995.5000000000;0.0036418354
996.0000000000;0.0029087369
996.5000000000;0.0027236547
997.0000000000;0.0028259922
997.5000000000;0.0023599900
998.0000000000;0.0009389548
998.5000000000;0.0008809956
999.0000000000;0.0025453852
999.5000000000;0.0034468910
1000.0000000000;0.0031527395
1000.5000000000;0.0024956239
1001.0000000000;0.0027312534
1001.5000000000;0.0028957550
1002.0000000000;0.0022627020
1002.5000000000;0.0022539084
1003.0000000000;0.0020235342
1003.5000000000;0.0008565987
1004.0000000000;0.0015236824
1004.5000000000;0.0028839386
1005.0000000000;0.0022529019
1005.5000000000;0.0019676953
1006.0000000000;0.0023778484
1006.5000000000;0.0018775285
1007.0000000000;0.0016079653
1007.5000000000;0.0018817438
1008.0000000000;0.0016278632
1008.5000000000;0.0014233972
1009.0000000000;0.0018059303
1009.5000000000;0.0024106987
1010.0000000000;0.0023360136
1010.5000000000;0.0013101127
1011.0000000000;0.0004807108
1011.5000000000;0.0009973088
1012.0000000000;0.0023898182
1012.5000000000;0.0013573434
1013.0000000000;-0.0001047722
1013.5000000000;0.0012298533
1014.0000000000;0.0022776842
1014.5000000000;0.0021766315
1015.0000000000;0.0021413509
1015.5000000000;0.0016536061
1016.0000000000;0.0007912755
1016.5000000000;0.0004525086
1017.0000000000;0.0009602772
1017.5000000000;0.0017845554
1018.0000000000;0.0019316488
1018.5000000000;0.0023164081
1019.0000000000;0.0030442984
1019.5000000000;0.0024038348
