182.5000000000;11.9434347153
183.0000000000;11.0769577026
183.5000000000;9.7389612198
184.0000000000;8.4161634445
184.5000000000;8.1999950409
185.0000000000;7.6428356171
185.5000000000;5.8917007446
186.0000000000;5.0338716507
186.5000000000;4.1125025749
187.0000000000;2.2366943359
187.5000000000;1.3326220512
188.0000000000;1.0247008801
188.5000000000;0.7417073250
189.0000000000;0.4947488606
189.5000000000;0.3620310724
190.0000000000;0.2920299470
190.5000000000;0.2709948123
191.0000000000;0.2491063029
191.5000000000;0.2016553581
192.0000000000;0.1804584563
192.5000000000;0.1907150745
193.0000000000;0.1895866394
193.5000000000;0.1713339090
194.0000000000;0.1549627334
194.5000000000;0.1512935162
195.0000000000;0.1572766006
195.5000000000;0.1411691308
196.0000000000;0.1119477302
196.5000000000;0.1059850156
197.0000000000;0.1117154807
197.5000000000;0.1102871820
198.0000000000;0.1104183421
198.5000000000;0.1109734103
199.0000000000;0.0971039161
199.5000000000;0.0842344314
200.0000000000;0.0921149179
200.5000000000;0.0964413285
201.0000000000;0.0826694518
201.5000000000;0.0666259527
202.0000000000;0.0586195290
202.5000000000;0.0609403849
203.0000000000;0.0645346567
203.5000000000;0.0617945008
204.0000000000;0.0575280748
204.5000000000;0.0553716607
205.0000000000;0.0554696918
205.5000000000;0.0575268716
206.0000000000;0.0608409047
206.5000000000;0.0635790378
207.0000000000;0.0640625358
207.5000000000;0.0619156584
208.0000000000;0.0622988567
208.5000000000;0.0721460357
209.0000000000;0.0801732689
209.5000000000;0.0755129978
210.0000000000;0.0668393523
210.5000000000;0.0622429289
211.0000000000;0.0647745579
211.5000000000;0.0717434138
212.0000000000;0.0773253888
212.5000000000;0.0749360472
213.0000000000;0.0660981387
213.5000000000;0.0630776137
214.0000000000;0.0660915375
214.5000000000;0.0683261380
215.0000000000;0.0694920197
215.5000000000;0.0688497424
216.0000000000;0.0617018901
216.5000000000;0.0534878671
217.0000000000;0.0557421707
217.5000000000;0.0623712353
218.0000000000;0.0637715831
218.5000000000;0.0585608594
219.0000000000;0.0510513075
219.5000000000;0.0493569858
220.0000000000;0.0508935936
220.5000000000;0.0492998213
221.0000000000;0.0456366912
221.5000000000;0.0430658087
222.0000000000;0.0450004004
222.5000000000;0.0475727655
223.0000000000;0.0435470939
223.5000000000;0.0412850231
224.0000000000;0.0482446887
224.5000000000;0.0544596016
225.0000000000;0.0542564094
225.5000000000;0.0504975095
226.0000000000;0.0472818837
226.5000000000;0.0480634458
227.0000000000;0.0517810881
227.5000000000;0.0554818437
228.0000000000;0.0553219840
228.5000000000;0.0538539290
229.0000000000;0.0566803180
229.5000000000;0.0600638725
230.0000000000;0.0600720160
230.5000000000;0.0589584708
231.0000000000;0.0598389506
231.5000000000;0.0646572858
232.0000000000;0.0671022236
232.5000000000;0.0628988743
233.0000000000;0.0628251582
233.5000000000;0.0674775764
234.0000000000;0.0636983141
234.5000000000;0.0571925528
235.0000000000;0.0598812439
235.5000000000;0.0656958595
236.0000000000;0.0667495877
236.5000000000;0.0599093921
237.0000000000;0.0547027886
237.5000000000;0.0634118617
238.0000000000;0.0669955164
238.5000000000;0.0545291565
239.0000000000;0.0524078235
239.5000000000;0.0617641807
240.0000000000;0.0592630170
240.5000000000;0.0532823354
241.0000000000;0.0583505034
241.5000000000;0.0650407001
242.0000000000;0.0661137104
242.5000000000;0.0629176274
243.0000000000;0.0589886121
243.5000000000;0.0577726550
244.0000000000;0.0581717789
244.5000000000;0.0583992787
245.0000000000;0.0576700494
245.5000000000;0.0568628907
246.0000000000;0.0576515943
246.5000000000;0.0582871139
247.0000000000;0.0578300878
247.5000000000;0.0608740784
248.0000000000;0.0673514158
248.5000000000;0.0707778931
249.0000000000;0.0680154040
249.5000000000;0.0605815053
250.0000000000;0.0596630983
250.5000000000;0.0687595382
251.0000000000;0.0751479566
251.5000000000;0.0742379501
252.0000000000;0.0701845810
252.5000000000;0.0740779564
253.0000000000;0.0883823633
253.5000000000;0.0925085768
254.0000000000;0.0858195722
254.5000000000;0.0875073895
255.0000000000;0.0939262807
255.5000000000;0.0949113294
256.0000000000;0.0919504091
256.5000000000;0.0895765275
257.0000000000;0.0929103419
257.5000000000;0.1014499962
258.0000000000;0.1105518416
258.5000000000;0.1125280932
259.0000000000;0.1077597663
259.5000000000;0.1098075584
260.0000000000;0.1176842973
260.5000000000;0.1215812936
261.0000000000;0.1255961657
261.5000000000;0.1337310225
262.0000000000;0.1409266889
262.5000000000;0.1497304589
263.0000000000;0.1679612994
263.5000000000;0.1843886524
264.0000000000;0.1910302639
264.5000000000;0.2092096359
265.0000000000;0.2392763644
265.5000000000;0.2545167804
266.0000000000;0.2608092129
266.5000000000;0.2753399014
267.0000000000;0.2903418839
267.5000000000;0.2997834086
268.0000000000;0.3084287345
268.5000000000;0.3160219491
269.0000000000;0.3201039135
269.5000000000;0.3275996447
270.0000000000;0.3407316804
270.5000000000;0.3472541869
271.0000000000;0.3463975787
271.5000000000;0.3485529423
272.0000000000;0.3591861129
272.5000000000;0.3772606850
273.0000000000;0.3904951811
273.5000000000;0.3998624086
274.0000000000;0.4219060540
274.5000000000;0.4488929212
275.0000000000;0.4658051729
275.5000000000;0.4832373261
276.0000000000;0.5079297423
276.5000000000;0.5310105085
277.0000000000;0.5520787835
277.5000000000;0.5766115189
278.0000000000;0.6016967893
278.5000000000;0.6249616742
279.0000000000;0.6513395905
279.5000000000;0.6825479269
280.0000000000;0.7155425549
280.5000000000;0.7434141636
281.0000000000;0.7646835446
281.5000000000;0.7978237867
282.0000000000;0.8465434909
282.5000000000;0.8920636177
283.0000000000;0.9291365743
283.5000000000;0.9643693566
284.0000000000;1.0153304338
284.5000000000;1.0832117796
285.0000000000;1.1406706572
285.5000000000;1.1860803366
286.0000000000;1.2364170551
286.5000000000;1.2990871668
287.0000000000;1.3676320314
287.5000000000;1.4157153368
288.0000000000;1.4445019960
288.5000000000;1.4798628092
289.0000000000;1.5326329470
289.5000000000;1.5980772972
290.0000000000;1.6486899853
290.5000000000;1.6798555851
291.0000000000;1.7146159410
291.5000000000;1.7560957670
292.0000000000;1.7973778248
292.5000000000;1.8344900608
293.0000000000;1.8689446449
293.5000000000;1.9073171616
294.0000000000;1.9393094778
294.5000000000;1.9523813725
295.0000000000;1.9715316296
295.5000000000;2.0095417500
296.0000000000;2.0414676666
296.5000000000;2.0663235188
297.0000000000;2.0992431641
297.5000000000;2.1223292351
298.0000000000;2.1265044212
298.5000000000;2.1472358704
299.0000000000;2.1860029697
299.5000000000;2.2096192837
300.0000000000;2.2239477634
300.5000000000;2.2446036339
301.0000000000;2.2630455494
301.5000000000;2.2744038105
302.0000000000;2.2838721275
302.5000000000;2.2947244644
303.0000000000;2.3081350327
303.5000000000;2.3229143620
304.0000000000;2.3361730576
304.5000000000;2.3438787460
305.0000000000;2.3518109322
305.5000000000;2.3696265221
306.0000000000;2.3912193775
306.5000000000;2.4065182209
307.0000000000;2.4083340168
307.5000000000;2.4066264629
308.0000000000;2.4217271805
308.5000000000;2.4434177876
309.0000000000;2.4553153515
309.5000000000;2.4569892883
310.0000000000;2.4605615139
310.5000000000;2.4855313301
311.0000000000;2.5145552158
311.5000000000;2.5210518837
312.0000000000;2.5137748718
312.5000000000;2.5129504204
313.0000000000;2.5403406620
313.5000000000;2.5708916187
314.0000000000;2.5656390190
314.5000000000;2.5608828068
315.0000000000;2.5843942165
315.5000000000;2.6096174717
316.0000000000;2.6247115135
316.5000000000;2.6351485252
317.0000000000;2.6472084522
317.5000000000;2.6657030582
318.0000000000;2.6911053658
318.5000000000;2.7147376537
319.0000000000;2.7226405144
319.5000000000;2.7287986279
320.0000000000;2.7527022362
320.5000000000;2.7898957729
321.0000000000;2.8229768276
321.5000000000;2.8282718658
322.0000000000;2.8287088871
322.5000000000;2.8575644493
323.0000000000;2.8815968037
323.5000000000;2.8882234097
324.0000000000;2.9204559326
324.5000000000;2.9667103291
325.0000000000;2.9843251705
325.5000000000;2.9916944504
326.0000000000;3.0136320591
326.5000000000;3.0489742756
327.0000000000;3.0831596851
327.5000000000;3.0986707211
328.0000000000;3.1167070866
328.5000000000;3.1562211514
329.0000000000;3.1944446564
329.5000000000;3.2170274258
330.0000000000;3.2269608974
330.5000000000;3.2418282032
331.0000000000;3.2756881714
331.5000000000;3.3118956089
332.0000000000;3.3395290375
332.5000000000;3.3625023365
333.0000000000;3.3813595772
333.5000000000;3.3966956139
334.0000000000;3.4184057713
334.5000000000;3.4476261139
335.0000000000;3.4698264599
335.5000000000;3.4893174171
336.0000000000;3.5175118446
336.5000000000;3.5334701538
337.0000000000;3.5324451923
337.5000000000;3.5551526546
338.0000000000;3.5903992653
338.5000000000;3.5914855003
339.0000000000;3.5831060410
339.5000000000;3.5982072353
340.0000000000;3.6279120445
340.5000000000;3.6513011456
341.0000000000;3.6475617886
341.5000000000;3.6398046017
342.0000000000;3.6515038013
342.5000000000;3.6541578770
343.0000000000;3.6509766579
343.5000000000;3.6848857403
344.0000000000;3.7147898674
344.5000000000;3.6869254112
345.0000000000;3.6632857323
345.5000000000;3.6787662506
346.0000000000;3.6949310303
346.5000000000;3.6928310394
347.0000000000;3.6731219292
347.5000000000;3.6510977745
348.0000000000;3.6384849548
348.5000000000;3.6338379383
349.0000000000;3.6299569607
349.5000000000;3.6172871590
350.0000000000;3.5914008617
350.5000000000;3.5592994690
351.0000000000;3.5461735725
351.5000000000;3.5396423340
352.0000000000;3.5012812614
352.5000000000;3.4556586742
353.0000000000;3.4311134815
353.5000000000;3.4038524628
354.0000000000;3.3698987961
354.5000000000;3.3504331112
355.0000000000;3.3271558285
355.5000000000;3.2785575390
356.0000000000;3.2316234112
356.5000000000;3.2045874596
357.0000000000;3.1908998489
357.5000000000;3.1648123264
358.0000000000;3.1054015160
358.5000000000;3.0490236282
359.0000000000;3.0241019726
359.5000000000;3.0235383511
360.0000000000;2.9993577003
360.5000000000;2.9158067703
361.0000000000;2.8367044926
361.5000000000;2.7829618454
362.0000000000;2.7422647476
362.5000000000;2.7046861649
363.0000000000;2.6607263088
363.5000000000;2.6113171577
364.0000000000;2.5557844639
364.5000000000;2.4856233597
365.0000000000;2.4202148914
365.5000000000;2.3943457603
366.0000000000;2.3723182678
366.5000000000;2.3161246777
367.0000000000;2.2553913593
367.5000000000;2.2070538998
368.0000000000;2.1654553413
368.5000000000;2.1306216717
369.0000000000;2.1000747681
369.5000000000;2.0550999641
370.0000000000;1.9974720478
370.5000000000;1.9579832554
371.0000000000;1.9283307791
371.5000000000;1.8837146759
372.0000000000;1.8321460485
372.5000000000;1.7858265638
373.0000000000;1.7504982948
373.5000000000;1.7169326544
374.0000000000;1.6708912849
374.5000000000;1.6212466955
375.0000000000;1.5783063173
375.5000000000;1.5425337553
376.0000000000;1.5088608265
376.5000000000;1.4713335037
377.0000000000;1.4393448830
377.5000000000;1.4173055887
378.0000000000;1.3868923187
378.5000000000;1.3480390310
379.0000000000;1.3186903000
379.5000000000;1.2959419489
380.0000000000;1.2715495825
380.5000000000;1.2483723164
381.0000000000;1.2206766605
381.5000000000;1.1764702797
382.0000000000;1.1531608105
382.5000000000;1.1765441895
383.0000000000;1.1710373163
383.5000000000;1.1226143837
384.0000000000;1.1053684950
384.5000000000;1.0934827328
385.0000000000;1.0371056795
385.5000000000;1.0057450533
386.0000000000;1.0267854929
386.5000000000;1.0369229317
387.0000000000;1.0199329853
387.5000000000;0.9939150214
388.0000000000;0.9805943966
388.5000000000;0.9809217453
389.0000000000;0.9648454189
389.5000000000;0.9452373385
390.0000000000;0.9576690793
390.5000000000;0.9762055874
391.0000000000;0.9781378508
391.5000000000;0.9813128114
392.0000000000;0.9803366065
392.5000000000;0.9575271606
393.0000000000;0.9440233707
393.5000000000;0.9576864839
394.0000000000;0.9604021311
394.5000000000;0.9574961662
395.0000000000;0.9862642288
395.5000000000;0.9956095815
396.0000000000;0.9515444636
396.5000000000;0.9485215545
397.0000000000;0.9879392385
397.5000000000;0.9760758877
398.0000000000;0.9626169801
398.5000000000;1.0075764656
399.0000000000;1.0334738493
399.5000000000;1.0128329992
400.0000000000;0.9967575073
400.5000000000;1.0103423595
401.0000000000;1.0499854088
401.5000000000;1.0717442036
402.0000000000;1.0659056902
402.5000000000;1.0731705427
403.0000000000;1.0978287458
403.5000000000;1.1275435686
404.0000000000;1.1694799662
404.5000000000;1.2101966143
405.0000000000;1.2096004486
405.5000000000;1.2100750208
406.0000000000;1.2734894753
406.5000000000;1.3399678469
407.0000000000;1.3661257029
407.5000000000;1.3812813759
408.0000000000;1.4120908976
408.5000000000;1.4693857431
409.0000000000;1.5252659321
409.5000000000;1.5619763136
410.0000000000;1.5960900784
410.5000000000;1.6457054615
411.0000000000;1.7209610939
411.5000000000;1.7934052944
412.0000000000;1.8427035809
412.5000000000;1.8926301003
413.0000000000;1.9556101561
413.5000000000;2.0321750641
414.0000000000;2.1126754284
414.5000000000;2.1878519058
415.0000000000;2.2662096024
415.5000000000;2.3490920067
416.0000000000;2.4342439175
416.5000000000;2.5210807323
417.0000000000;2.6091160774
417.5000000000;2.7086699009
418.0000000000;2.8283386230
418.5000000000;2.9700655937
419.0000000000;3.1035497189
419.5000000000;3.2008659840
420.0000000000;3.3053739071
420.5000000000;3.4396171570
421.0000000000;3.5834462643
421.5000000000;3.7248716354
422.0000000000;3.8660609722
422.5000000000;4.0143175125
423.0000000000;4.1684799194
423.5000000000;4.3244299889
424.0000000000;4.4850139618
424.5000000000;4.6640353203
425.0000000000;4.8705506325
425.5000000000;5.0815677643
426.0000000000;5.2746000290
426.5000000000;5.4725794792
427.0000000000;5.6845693588
427.5000000000;5.8821101189
428.0000000000;6.0793662071
428.5000000000;6.3160619736
429.0000000000;6.5828990936
429.5000000000;6.8302135468
430.0000000000;7.0615544319
430.5000000000;7.3029460907
431.0000000000;7.5578546524
431.5000000000;7.8257088661
432.0000000000;8.1027088165
432.5000000000;8.3872966766
433.0000000000;8.6806650162
433.5000000000;8.9729299545
434.0000000000;9.2491483688
434.5000000000;9.5434198380
435.0000000000;9.8670425415
435.5000000000;10.1817073822
436.0000000000;10.5022630692
436.5000000000;10.8379945755
437.0000000000;11.1706075668
437.5000000000;11.5087013245
438.0000000000;11.8562326431
438.5000000000;12.1935157776
439.0000000000;12.5287494659
439.5000000000;12.8907108307
440.0000000000;13.2666206360
440.5000000000;13.6414661407
441.0000000000;14.0195112228
441.5000000000;14.3742189407
442.0000000000;14.7278938293
442.5000000000;15.1215667725
443.0000000000;15.5371017456
443.5000000000;15.9394435883
444.0000000000;16.3219070435
444.5000000000;16.7065696716
445.0000000000;17.1070213318
445.5000000000;17.5238189697
446.0000000000;17.9318790436
446.5000000000;18.3310298920
447.0000000000;18.7610168457
447.5000000000;19.2057380676
448.0000000000;19.6234169006
448.5000000000;20.0315914154
449.0000000000;20.4464244843
449.5000000000;20.8668556213
450.0000000000;21.2988357544
450.5000000000;21.7452907562
451.0000000000;22.1886520386
451.5000000000;22.6238250732
452.0000000000;23.0695381165
452.5000000000;23.5138092041
453.0000000000;23.9412422180
453.5000000000;24.3742179871
454.0000000000;24.8286037445
454.5000000000;25.3014659882
455.0000000000;25.7691669464
455.5000000000;26.2102603912
456.0000000000;26.6444740295
456.5000000000;27.0905799866
457.0000000000;27.5465621948
457.5000000000;28.0026607513
458.0000000000;28.4494438171
458.5000000000;28.8791770935
459.0000000000;29.3150768280
459.5000000000;29.7862377167
460.0000000000;30.2728614807
460.5000000000;30.7493381500
461.0000000000;31.2213344574
461.5000000000;31.6834392548
462.0000000000;32.1433029175
462.5000000000;32.6070442200
463.0000000000;33.0448837280
463.5000000000;33.4737854004
464.0000000000;33.9310493469
464.5000000000;34.3822402954
465.0000000000;34.8288040161
465.5000000000;35.3137283325
466.0000000000;35.7868080139
466.5000000000;36.2191505432
467.0000000000;36.6877899170
467.5000000000;37.1841087341
468.0000000000;37.6413955688
468.5000000000;38.0767402649
469.0000000000;38.5378913879
469.5000000000;39.0367889404
470.0000000000;39.5408515930
470.5000000000;40.0098876953
471.0000000000;40.4566535950
471.5000000000;40.9037933350
472.0000000000;41.3522491455
472.5000000000;41.7958145142
473.0000000000;42.2232704163
473.5000000000;42.6377296448
474.0000000000;43.0756492615
474.5000000000;43.5696258545
475.0000000000;44.0632209778
475.5000000000;44.4869194031
476.0000000000;44.8944816589
476.5000000000;45.3358650208
477.0000000000;45.7834281921
477.5000000000;46.2250785828
478.0000000000;46.6589584351
478.5000000000;47.0816268921
479.0000000000;47.5085563660
479.5000000000;47.9342956543
480.0000000000;48.3446464539
480.5000000000;48.7537231445
481.0000000000;49.1735000610
481.5000000000;49.5991249084
482.0000000000;50.0130310059
482.5000000000;50.4116210938
483.0000000000;50.8049011230
483.5000000000;51.2095565796
484.0000000000;51.6028900146
484.5000000000;51.9182815552
485.0000000000;52.3752136230
485.5000000000;53.0679206848
486.0000000000;53.3285446167
486.5000000000;53.1151885986
487.0000000000;53.3417091370
487.5000000000;54.1516036987
488.0000000000;54.6524887085
488.5000000000;54.9363403320
489.0000000000;55.3454360962
489.5000000000;55.7367668152
490.0000000000;56.0483665466
490.5000000000;56.3587303162
491.0000000000;56.7017517090
491.5000000000;57.0739173889
492.0000000000;57.4412307739
492.5000000000;57.7684020996
493.0000000000;58.0431632996
493.5000000000;58.3266868591
494.0000000000;58.6738586426
494.5000000000;59.0473365784
495.0000000000;59.4052543640
495.5000000000;59.7323684692
496.0000000000;60.0393295288
496.5000000000;60.3323822021
497.0000000000;60.6100196838
497.5000000000;60.9026107788
498.0000000000;61.2300300598
498.5000000000;61.5233917236
499.0000000000;61.7515220642
499.5000000000;61.9942779541
500.0000000000;62.2905387878
500.5000000000;62.6146888733
501.0000000000;62.8924293518
501.5000000000;63.0999832153
502.0000000000;63.3444976807
502.5000000000;63.6390762329
503.0000000000;63.9033164978
503.5000000000;64.1517791748
504.0000000000;64.4187316895
504.5000000000;64.6854934692
505.0000000000;64.9266891479
505.5000000000;65.1327133179
506.0000000000;65.3558120728
506.5000000000;65.6223526001
507.0000000000;65.8667755127
507.5000000000;66.0788497925
508.0000000000;66.2927474976
508.5000000000;66.5184478760
509.0000000000;66.7576828003
509.5000000000;66.9886856079
510.0000000000;67.1999969482
510.5000000000;67.4003601074
511.0000000000;67.6036453247
511.5000000000;67.8134460449
512.0000000000;68.0163192749
512.5000000000;68.2150955200
513.0000000000;68.4215164185
513.5000000000;68.6413497925
514.0000000000;68.8663558960
514.5000000000;69.0634307861
515.0000000000;69.2372283936
515.5000000000;69.4167480469
516.0000000000;69.6002197266
516.5000000000;69.7845687866
517.0000000000;69.9749374390
517.5000000000;70.1585388184
518.0000000000;70.3206558228
518.5000000000;70.4927139282
519.0000000000;70.6860046387
519.5000000000;70.8590164185
520.0000000000;71.0190963745
520.5000000000;71.1992416382
521.0000000000;71.3719635010
521.5000000000;71.5275192261
522.0000000000;71.7155151367
522.5000000000;71.9113998413
523.0000000000;72.0561447144
523.5000000000;72.2002182007
524.0000000000;72.3781738281
524.5000000000;72.5501556396
525.0000000000;72.7024917603
525.5000000000;72.8446121216
526.0000000000;72.9872512817
526.5000000000;73.1318588257
527.0000000000;73.2677612305
527.5000000000;73.4035949707
528.0000000000;73.5547485352
528.5000000000;73.7144088745
529.0000000000;73.8704528809
529.5000000000;74.0142211914
530.0000000000;74.1477584839
530.5000000000;74.2792587280
531.0000000000;74.4197158813
531.5000000000;74.5698776245
532.0000000000;74.7173843384
532.5000000000;74.8633728027
533.0000000000;75.0080413818
533.5000000000;75.1251373291
534.0000000000;75.2232131958
534.5000000000;75.3542480469
535.0000000000;75.5029525757
535.5000000000;75.6330947876
536.0000000000;75.7633209229
536.5000000000;75.9031143188
537.0000000000;76.0361785889
537.5000000000;76.1561660767
538.0000000000;76.2666015625
538.5000000000;76.3809738159
539.0000000000;76.5006637573
539.5000000000;76.6134414673
540.0000000000;76.7339096069
540.5000000000;76.8755874634
541.0000000000;77.0143051147
541.5000000000;77.1340560913
542.0000000000;77.2356643677
542.5000000000;77.3337020874
543.0000000000;77.4470977783
543.5000000000;77.5829391479
544.0000000000;77.7217636108
544.5000000000;77.8310241699
545.0000000000;77.9282379150
545.5000000000;78.0395278931
546.0000000000;78.1628570557
546.5000000000;78.2900772095
547.0000000000;78.4106979370
547.5000000000;78.5056915283
548.0000000000;78.5750045776
548.5000000000;78.6646728516
549.0000000000;78.7914657593
549.5000000000;78.9358978271
550.0000000000;79.0622482300
550.5000000000;79.1592788696
551.0000000000;79.2682418823
551.5000000000;79.3910980225
552.0000000000;79.4993133545
552.5000000000;79.6041412354
553.0000000000;79.7125473022
553.5000000000;79.7979278564
554.0000000000;79.8804702759
554.5000000000;80.0027999878
555.0000000000;80.1251678467
555.5000000000;80.2160034180
556.0000000000;80.3028564453
556.5000000000;80.4006881714
557.0000000000;80.5071258545
557.5000000000;80.6043624878
558.0000000000;80.6932373047
558.5000000000;80.8061676025
559.0000000000;80.9350967407
559.5000000000;81.0485992432
560.0000000000;81.1386108398
560.5000000000;81.2176895142
561.0000000000;81.3136672974
561.5000000000;81.4186706543
562.0000000000;81.5130615234
562.5000000000;81.6087570190
563.0000000000;81.7145996094
563.5000000000;81.8263473511
564.0000000000;81.9305877686
564.5000000000;82.0177841187
565.0000000000;82.1040039063
565.5000000000;82.2050170898
566.0000000000;82.3265380859
566.5000000000;82.4488754272
567.0000000000;82.5559310913
567.5000000000;82.6759185791
568.0000000000;82.8026428223
568.5000000000;82.8795852661
569.0000000000;82.8706893921
569.5000000000;82.8195266724
570.0000000000;82.9088973999
570.5000000000;83.0686645508
571.0000000000;82.9898376465
571.5000000000;82.6543884277
572.0000000000;82.4272689819
572.5000000000;82.7637557983
573.0000000000;83.3816375732
573.5000000000;83.6679153442
574.0000000000;83.6311950684
574.5000000000;83.4901962280
575.0000000000;83.4961090088
575.5000000000;83.6238708496
576.0000000000;83.7013168335
576.5000000000;83.8818740845
577.0000000000;84.1452941895
577.5000000000;84.0931320190
578.0000000000;83.9428176880
578.5000000000;84.1533432007
579.0000000000;84.5666961670
579.5000000000;84.8475875854
580.0000000000;84.7479476929
580.5000000000;84.5398941040
581.0000000000;84.5691223145
581.5000000000;84.4211349487
582.0000000000;84.1121749878
582.5000000000;84.1938781738
583.0000000000;84.5652236938
583.5000000000;84.8007888794
584.0000000000;84.8024215698
584.5000000000;84.7128829956
585.0000000000;84.7617645264
585.5000000000;84.8823547363
586.0000000000;84.9584121704
586.5000000000;85.0796356201
587.0000000000;85.2343597412
587.5000000000;85.2961807251
588.0000000000;85.2779312134
588.5000000000;85.2591705322
589.0000000000;85.3459472656
589.5000000000;85.5259246826
590.0000000000;85.6742935181
590.5000000000;85.7646331787
591.0000000000;85.8222274780
591.5000000000;85.8827896118
592.0000000000;85.9712295532
592.5000000000;86.0788879395
593.0000000000;86.1171188354
593.5000000000;86.1092224121
594.0000000000;86.2496719360
594.5000000000;86.4161682129
595.0000000000;86.3932113647
595.5000000000;86.4003524780
596.0000000000;86.5547256470
596.5000000000;86.7028350830
597.0000000000;86.7859497070
597.5000000000;86.8395004272
598.0000000000;86.9466476440
598.5000000000;87.0950927734
599.0000000000;87.1649322510
599.5000000000;87.2193984985
600.0000000000;87.3386993408
600.5000000000;87.4076995850
601.0000000000;87.4041442871
601.5000000000;87.4267730713
602.0000000000;87.5337600708
602.5000000000;87.6934890747
603.0000000000;87.7318420410
603.5000000000;87.6854782104
604.0000000000;87.7393264771
604.5000000000;87.8776397705
605.0000000000;88.0087890625
605.5000000000;88.0671463013
606.0000000000;88.0813293457
606.5000000000;88.1184310913
607.0000000000;88.1617126465
607.5000000000;88.1935958862
608.0000000000;88.2273406982
608.5000000000;88.2798843384
609.0000000000;88.3501129150
609.5000000000;88.3693237305
610.0000000000;88.3428268433
610.5000000000;88.3745498657
611.0000000000;88.4309310913
611.5000000000;88.4446868896
612.0000000000;88.4641265869
612.5000000000;88.5045547485
613.0000000000;88.5263442993
613.5000000000;88.5285034180
614.0000000000;88.5336227417
614.5000000000;88.5743408203
615.0000000000;88.6240463257
615.5000000000;88.6202316284
616.0000000000;88.6389312744
616.5000000000;88.7315902710
617.0000000000;88.8031539917
617.5000000000;88.8132705688
618.0000000000;88.7926940918
618.5000000000;88.8102188110
619.0000000000;88.8753433228
619.5000000000;88.8910140991
620.0000000000;88.8712997437
620.5000000000;88.8914642334
621.0000000000;88.9801712036
621.5000000000;89.0876464844
622.0000000000;89.0955276489
622.5000000000;89.0619049072
623.0000000000;89.0910644531
623.5000000000;89.1592636108
624.0000000000;89.2256774902
624.5000000000;89.2659149170
625.0000000000;89.3341445923
625.5000000000;89.4541702271
626.0000000000;89.5045166016
626.5000000000;89.4956817627
627.0000000000;89.5445861816
627.5000000000;89.5941467285
628.0000000000;89.6042861938
628.5000000000;89.6717071533
629.0000000000;89.7672653198
629.5000000000;89.7963790894
630.0000000000;89.8238449097
630.5000000000;89.9014282227
631.0000000000;89.9935989380
631.5000000000;90.0659713745
632.0000000000;90.1025085449
632.5000000000;90.1259689331
633.0000000000;90.1577377319
633.5000000000;90.2061233521
634.0000000000;90.2681884766
634.5000000000;90.3318862915
635.0000000000;90.3755111694
635.5000000000;90.3991546631
636.0000000000;90.4233856201
636.5000000000;90.4499969482
637.0000000000;90.4764022827
637.5000000000;90.5058822632
638.0000000000;90.5431671143
638.5000000000;90.5929489136
639.0000000000;90.6529998779
639.5000000000;90.7078552246
640.0000000000;90.7285842896
640.5000000000;90.7371292114
641.0000000000;90.7728729248
641.5000000000;90.8149948120
642.0000000000;90.8468475342
642.5000000000;90.8748550415
643.0000000000;90.8880310059
643.5000000000;90.8828048706
644.0000000000;90.9023284912
644.5000000000;90.9498519897
645.0000000000;90.9826507568
645.5000000000;90.9965286255
646.0000000000;91.0055313110
646.5000000000;91.0254135132
647.0000000000;91.0497894287
647.5000000000;91.0603561401
648.0000000000;91.0724868774
648.5000000000;91.0945663452
649.0000000000;91.1072692871
649.5000000000;91.1185150146
650.0000000000;91.1478042603
650.5000000000;91.1827316284
651.0000000000;91.2080917358
651.5000000000;91.2174072266
652.0000000000;91.2188796997
652.5000000000;91.2326736450
653.0000000000;91.2887268066
653.5000000000;91.3201065063
654.0000000000;91.2356872559
654.5000000000;91.4662628174
655.0000000000;92.2051391602
655.5000000000;92.1956024170
656.0000000000;91.5655059814
656.5000000000;90.1192474365
657.0000000000;88.6994094849
657.5000000000;90.5675735474
658.0000000000;91.9232864380
658.5000000000;91.5498352051
659.0000000000;91.5492706299
659.5000000000;91.7318801880
660.0000000000;91.7586212158
660.5000000000;91.7905960083
661.0000000000;91.8443984985
661.5000000000;91.8767929077
662.0000000000;91.9225997925
662.5000000000;91.9769287109
663.0000000000;91.9972229004
663.5000000000;92.0328216553
664.0000000000;92.1179275513
664.5000000000;92.1873779297
665.0000000000;92.2234725952
665.5000000000;92.2559509277
666.0000000000;92.3137588501
666.5000000000;92.3960266113
667.0000000000;92.4597396851
667.5000000000;92.5000305176
668.0000000000;92.5361633301
668.5000000000;92.5821380615
669.0000000000;92.6299591064
669.5000000000;92.6540756226
670.0000000000;92.6781616211
670.5000000000;92.7273559570
671.0000000000;92.7779922485
671.5000000000;92.8178405762
672.0000000000;92.8519363403
672.5000000000;92.8860244751
673.0000000000;92.9258193970
673.5000000000;92.9754867554
674.0000000000;93.0235137939
674.5000000000;93.0566864014
675.0000000000;93.0941848755
675.5000000000;93.1405715942
676.0000000000;93.1748123169
676.5000000000;93.2109909058
677.0000000000;93.2643432617
677.5000000000;93.3037567139
678.0000000000;93.3222198486
678.5000000000;93.3429260254
679.0000000000;93.3759078979
679.5000000000;93.4134445190
680.0000000000;93.4278259277
680.5000000000;93.4428863525
681.0000000000;93.4983139038
681.5000000000;93.5306777954
682.0000000000;93.5250701904
682.5000000000;93.5671157837
683.0000000000;93.6295623779
683.5000000000;93.6480941772
684.0000000000;93.6535797119
684.5000000000;93.6576309204
685.0000000000;93.6387252808
685.5000000000;93.6270523071
686.0000000000;93.6558685303
686.5000000000;93.7169570923
687.0000000000;93.7754211426
687.5000000000;93.7939147949
688.0000000000;93.8006439209
688.5000000000;93.8229827881
689.0000000000;93.8550109863
689.5000000000;93.8735961914
690.0000000000;93.8630599976
690.5000000000;93.8583145142
691.0000000000;93.8725433350
691.5000000000;93.8856811523
692.0000000000;93.9063720703
692.5000000000;93.9393997192
693.0000000000;93.9520339966
693.5000000000;93.9550704956
694.0000000000;93.9875411987
694.5000000000;94.0224304199
695.0000000000;94.0412979126
695.5000000000;94.0727157593
696.0000000000;94.1148300171
696.5000000000;94.1440353394
697.0000000000;94.1414413452
697.5000000000;94.1312866211
698.0000000000;94.1748809814
698.5000000000;94.2380599976
699.0000000000;94.2721939087
699.5000000000;94.3022308350
700.0000000000;94.3389282227
700.5000000000;94.3728103638
701.0000000000;94.4040527344
701.5000000000;94.4356079102
702.0000000000;94.4687042236
702.5000000000;94.4996795654
703.0000000000;94.5280685425
703.5000000000;94.5715026855
704.0000000000;94.6268768311
704.5000000000;94.6667785645
705.0000000000;94.6992416382
705.5000000000;94.7382202148
706.0000000000;94.7725448608
706.5000000000;94.7938156128
707.0000000000;94.8044586182
707.5000000000;94.8281707764
708.0000000000;94.8777008057
708.5000000000;94.9373931885
709.0000000000;94.9970092773
709.5000000000;95.0518417358
710.0000000000;95.0957336426
710.5000000000;95.1337127686
711.0000000000;95.1813201904
711.5000000000;95.2256698608
712.0000000000;95.2540512085
712.5000000000;95.2828750610
713.0000000000;95.3138885498
713.5000000000;95.3390731812
714.0000000000;95.3758621216
714.5000000000;95.4276733398
715.0000000000;95.4669952393
715.5000000000;95.4953613281
716.0000000000;95.5321197510
716.5000000000;95.5915832520
717.0000000000;95.6628952026
717.5000000000;95.7137451172
718.0000000000;95.7396469116
718.5000000000;95.7568511963
719.0000000000;95.7980880737
719.5000000000;95.8603057861
720.0000000000;95.9176406860
720.5000000000;95.9658355713
721.0000000000;96.0075149536
721.5000000000;96.0473403931
722.0000000000;96.0856704712
722.5000000000;96.1233139038
723.0000000000;96.1681060791
723.5000000000;96.2101593018
724.0000000000;96.2305679321
724.5000000000;96.2578277588
725.0000000000;96.3026504517
725.5000000000;96.3175277710
726.0000000000;96.3157424927
726.5000000000;96.3404083252
727.0000000000;96.3797760010
727.5000000000;96.4247589111
728.0000000000;96.4823760986
728.5000000000;96.5256500244
729.0000000000;96.5378875732
729.5000000000;96.5637969971
730.0000000000;96.6005249023
730.5000000000;96.6067733765
731.0000000000;96.5990982056
731.5000000000;96.6079254150
732.0000000000;96.6531448364
732.5000000000;96.7136535645
733.0000000000;96.7549667358
733.5000000000;96.7790222168
734.0000000000;96.7889556885
734.5000000000;96.7838287354
735.0000000000;96.7792053223
735.5000000000;96.7914505005
736.0000000000;96.8242721558
736.5000000000;96.8625411987
737.0000000000;96.8857345581
737.5000000000;96.9074401855
738.0000000000;96.9428863525
738.5000000000;96.9911270142
739.0000000000;97.0114746094
739.5000000000;96.9793167114
740.0000000000;96.9538879395
740.5000000000;96.9642486572
741.0000000000;96.9994125366
741.5000000000;97.0399169922
742.0000000000;97.0683898926
742.5000000000;97.0795593262
743.0000000000;97.0927734375
743.5000000000;97.1250762939
744.0000000000;97.1410293579
744.5000000000;97.1369552612
745.0000000000;97.1497039795
745.5000000000;97.1706161499
746.0000000000;97.1853561401
746.5000000000;97.2058563232
747.0000000000;97.2145233154
747.5000000000;97.1907196045
748.0000000000;97.1983337402
748.5000000000;97.2519912720
749.0000000000;97.2800674438
749.5000000000;97.2931976318
750.0000000000;97.3153076172
750.5000000000;97.2989730835
751.0000000000;97.2763290405
751.5000000000;97.3304061890
752.0000000000;97.3900299072
752.5000000000;97.3941192627
753.0000000000;97.3780670166
753.5000000000;97.3650817871
754.0000000000;97.3667831421
754.5000000000;97.3994445801
755.0000000000;97.4537734985
755.5000000000;97.4934082031
756.0000000000;97.4935226440
756.5000000000;97.4606857300
757.0000000000;97.4467315674
757.5000000000;97.4599990845
758.0000000000;97.4802474976
758.5000000000;97.5027923584
759.0000000000;97.5280303955
759.5000000000;97.5590362549
760.0000000000;97.6071777344
760.5000000000;97.6647872925
761.0000000000;97.6772537231
761.5000000000;97.6855239868
762.0000000000;97.7726516724
762.5000000000;97.8465728760
763.0000000000;97.8456573486
763.5000000000;97.8231964111
764.0000000000;97.8261718750
764.5000000000;97.8681106567
765.0000000000;97.8964004517
765.5000000000;97.9168548584
766.0000000000;97.9809875488
766.5000000000;98.0618591309
767.0000000000;98.1195144653
767.5000000000;98.1358947754
768.0000000000;98.1202850342
768.5000000000;98.0971755981
769.0000000000;98.0903091431
769.5000000000;98.1223526001
770.0000000000;98.2047805786
770.5000000000;98.2809371948
771.0000000000;98.3102798462
771.5000000000;98.3307952881
772.0000000000;98.3737182617
772.5000000000;98.4435272217
773.0000000000;98.4934387207
773.5000000000;98.5081787109
774.0000000000;98.5186996460
774.5000000000;98.5622177124
775.0000000000;98.6425399780
775.5000000000;98.6961517334
776.0000000000;98.7064514160
776.5000000000;98.7015609741
777.0000000000;98.7272567749
777.5000000000;98.7797546387
778.0000000000;98.7994232178
778.5000000000;98.8024215698
779.0000000000;98.8137359619
779.5000000000;98.8068389893
780.0000000000;98.8086471558
780.5000000000;98.8632354736
781.0000000000;98.8971786499
781.5000000000;98.8888092041
782.0000000000;98.9160690308
782.5000000000;98.9564361572
783.0000000000;98.9705047607
783.5000000000;98.9975433350
784.0000000000;99.0451660156
784.5000000000;99.0883941650
785.0000000000;99.1139907837
785.5000000000;99.1262588501
786.0000000000;99.1485290527
786.5000000000;99.1848526001
787.0000000000;99.2241058350
787.5000000000;99.2460174561
788.0000000000;99.2445144653
788.5000000000;99.2303543091
789.0000000000;99.2301177979
789.5000000000;99.2553100586
790.0000000000;99.2883682251
790.5000000000;99.3105545044
791.0000000000;99.3181533813
791.5000000000;99.3434829712
792.0000000000;99.3865966797
792.5000000000;99.4179992676
793.0000000000;99.4387741089
793.5000000000;99.4416427612
794.0000000000;99.3997573853
794.5000000000;99.3681945801
795.0000000000;99.4063186646
795.5000000000;99.4625625610
796.0000000000;99.5017242432
796.5000000000;99.5242156982
797.0000000000;99.5405273438
797.5000000000;99.5532684326
798.0000000000;99.5502090454
798.5000000000;99.5460968018
799.0000000000;99.5599136353
799.5000000000;99.5771865845
800.0000000000;99.5904235840
800.5000000000;99.6030044556
801.0000000000;99.6107025146
801.5000000000;99.6134872437
802.0000000000;99.6222839355
802.5000000000;99.6464614868
803.0000000000;99.6833648682
803.5000000000;99.7028121948
804.0000000000;99.7037963867
804.5000000000;99.7126998901
805.0000000000;99.7295074463
805.5000000000;99.7371597290
806.0000000000;99.7117233276
806.5000000000;99.6865005493
807.0000000000;99.7049102783
807.5000000000;99.7452239990
808.0000000000;99.7710113525
808.5000000000;99.7581863403
809.0000000000;99.7572402954
809.5000000000;99.7948379517
810.0000000000;99.8230438232
810.5000000000;99.8227157593
811.0000000000;99.8071594238
811.5000000000;99.8183898926
812.0000000000;99.8478698730
812.5000000000;99.8487396240
813.0000000000;99.8457107544
813.5000000000;99.8533935547
814.0000000000;99.8410491943
814.5000000000;99.8393478394
815.0000000000;99.8772354126
815.5000000000;99.8853302002
816.0000000000;99.8677444458
816.5000000000;99.8909072876
817.0000000000;99.9272308350
817.5000000000;99.9448242188
818.0000000000;99.9499664307
818.5000000000;99.9544448853
819.0000000000;99.9649887085
819.5000000000;99.9720916748
820.0000000000;99.9671859741
820.5000000000;99.9522857666
821.0000000000;99.9618530273
821.5000000000;99.9998168945
822.0000000000;100.0196456909
822.5000000000;100.0256347656
823.0000000000;100.0337219238
823.5000000000;100.0235671997
824.0000000000;100.0114135742
824.5000000000;100.0331268311
825.0000000000;100.0628509521
825.5000000000;100.0751724243
826.0000000000;100.0692749023
826.5000000000;100.0613250732
827.0000000000;100.0652923584
827.5000000000;100.0744781494
828.0000000000;100.0885620117
828.5000000000;100.1101455688
829.0000000000;100.1265335083
829.5000000000;100.1375579834
830.0000000000;100.1578292847
830.5000000000;100.1649856567
831.0000000000;100.1491546631
831.5000000000;100.1538619995
832.0000000000;100.1679534912
832.5000000000;100.1574630737
833.0000000000;100.1549224854
833.5000000000;100.1745223999
834.0000000000;100.1915283203
834.5000000000;100.1693725586
835.0000000000;100.1178131104
835.5000000000;100.1268386841
836.0000000000;100.1735610962
836.5000000000;100.1911087036
837.0000000000;100.2130355835
837.5000000000;100.2373809814
838.0000000000;100.2222595215
838.5000000000;100.2073059082
839.0000000000;100.2243881226
839.5000000000;100.2477416992
840.0000000000;100.2501754761
840.5000000000;100.2272415161
841.0000000000;100.2266693115
841.5000000000;100.2437896729
842.0000000000;100.2341995239
842.5000000000;100.2196502686
843.0000000000;100.2275772095
843.5000000000;100.2614746094
844.0000000000;100.2888336182
844.5000000000;100.2874145508
845.0000000000;100.2918930054
845.5000000000;100.2937393188
846.0000000000;100.2655029297
846.5000000000;100.2591476440
847.0000000000;100.2913970947
847.5000000000;100.3158493042
848.0000000000;100.3199539185
848.5000000000;100.3059310913
849.0000000000;100.2763748169
849.5000000000;100.2588882446
850.0000000000;100.2751541138
850.5000000000;100.2756729126
851.0000000000;100.2492141724
851.5000000000;100.2344741821
852.0000000000;100.2367248535
852.5000000000;100.2366027832
853.0000000000;100.2031707764
853.5000000000;100.1787414551
854.0000000000;100.2067871094
854.5000000000;100.2244796753
855.0000000000;100.2156677246
855.5000000000;100.2167205811
856.0000000000;100.2302093506
856.5000000000;100.2478027344
857.0000000000;100.2606887817
857.5000000000;100.2609634399
858.0000000000;100.2479400635
858.5000000000;100.2356033325
859.0000000000;100.2297134399
859.5000000000;100.2304382324
860.0000000000;100.2442016602
860.5000000000;100.2586975098
861.0000000000;100.2475738525
861.5000000000;100.2438735962
862.0000000000;100.2630310059
862.5000000000;100.2535781860
863.0000000000;100.2245101929
863.5000000000;100.2159729004
864.0000000000;100.2387161255
864.5000000000;100.2695236206
865.0000000000;100.2681732178
865.5000000000;100.2468109131
866.0000000000;100.2302856445
866.5000000000;100.2327423096
867.0000000000;100.2252807617
867.5000000000;100.1925888062
868.0000000000;100.1922378540
868.5000000000;100.2214508057
869.0000000000;100.2368316650
869.5000000000;100.2426910400
870.0000000000;100.2475128174
870.5000000000;100.2494125366
871.0000000000;100.2338027954
871.5000000000;100.2081375122
872.0000000000;100.2196655273
872.5000000000;100.2309417725
873.0000000000;100.1975402832
873.5000000000;100.1989898682
874.0000000000;100.2300033569
874.5000000000;100.2154388428
875.0000000000;100.2043685913
875.5000000000;100.2306442261
876.0000000000;100.2561340332
876.5000000000;100.2528381348
877.0000000000;100.2262344360
877.5000000000;100.2324600220
878.0000000000;100.2563858032
878.5000000000;100.2431335449
879.0000000000;100.1931533813
879.5000000000;100.1654815674
880.0000000000;100.2344207764
880.5000000000;100.2829589844
881.0000000000;100.2525405884
881.5000000000;100.2785491943
882.0000000000;100.3119049072
882.5000000000;100.2698669434
883.0000000000;100.2612152100
883.5000000000;100.2861328125
884.0000000000;100.2671432495
884.5000000000;100.2647933960
885.0000000000;100.3049011230
885.5000000000;100.3305053711
886.0000000000;100.3250732422
886.5000000000;100.3065490723
887.0000000000;100.3160781860
887.5000000000;100.3220596313
888.0000000000;100.2884750366
888.5000000000;100.2964630127
889.0000000000;100.3254928589
889.5000000000;100.2822952271
890.0000000000;100.2684173584
890.5000000000;100.3290710449
891.0000000000;100.3625030518
891.5000000000;100.3368835449
892.0000000000;100.2917404175
892.5000000000;100.3254318237
893.0000000000;100.3914718628
893.5000000000;100.3827896118
894.0000000000;100.3365173340
894.5000000000;100.3168106079
895.0000000000;100.3634262085
895.5000000000;100.4021453857
896.0000000000;100.3880691528
896.5000000000;100.3724899292
897.0000000000;100.3947448730
897.5000000000;100.4415435791
898.0000000000;100.4126434326
898.5000000000;100.3544464111
899.0000000000;100.3726425171
899.5000000000;100.3833541870
900.0000000000;100.3729171753
900.5000000000;100.4227752686
901.0000000000;100.4720306396
901.5000000000;100.4666748047
902.0000000000;100.4428100586
902.5000000000;100.4414367676
903.0000000000;100.4712371826
903.5000000000;100.4701919556
904.0000000000;100.4398040771
904.5000000000;100.4260101318
905.0000000000;100.4306869507
905.5000000000;100.4523696899
906.0000000000;100.4895401001
906.5000000000;100.5011596680
907.0000000000;100.4775924683
907.5000000000;100.4752197266
908.0000000000;100.4901885986
908.5000000000;100.5007858276
909.0000000000;100.5237350464
909.5000000000;100.5463485718
910.0000000000;100.5402450562
910.5000000000;100.5187988281
911.0000000000;100.5004882813
911.5000000000;100.4977951050
912.0000000000;100.5179824829
912.5000000000;100.5563430786
913.0000000000;100.5916137695
913.5000000000;100.6024093628
914.0000000000;100.5855178833
914.5000000000;100.5771636963
915.0000000000;100.5754318237
915.5000000000;100.5564804077
916.0000000000;100.5359725952
916.5000000000;100.5418853760
917.0000000000;100.5903625488
917.5000000000;100.6142959595
918.0000000000;100.6010665894
918.5000000000;100.6481246948
919.0000000000;100.6892700195
919.5000000000;100.6644058228
920.0000000000;100.7170562744
920.5000000000;100.7890853882
921.0000000000;100.7369461060
921.5000000000;100.6861343384
922.0000000000;100.6999206543
922.5000000000;100.7262878418
923.0000000000;100.7625122070
923.5000000000;100.7995300293
924.0000000000;100.7996597290
924.5000000000;100.7803878784
925.0000000000;100.7803344727
925.5000000000;100.8196792603
926.0000000000;100.8515625000
926.5000000000;100.8176956177
927.0000000000;100.7608413696
927.5000000000;100.7658386230
928.0000000000;100.8856430054
928.5000000000;100.9350662231
929.0000000000;100.8642959595
929.5000000000;100.8699188232
930.0000000000;100.9310607910
930.5000000000;100.9685287476
931.0000000000;100.9806060791
931.5000000000;100.9610900879
932.0000000000;100.9235763550
932.5000000000;100.9503479004
933.0000000000;101.0158309937
933.5000000000;101.0231323242
934.0000000000;101.0035400391
934.5000000000;100.9748916626
935.0000000000;100.9229812622
935.5000000000;100.9657974243
936.0000000000;101.1131973267
936.5000000000;101.1395492554
937.0000000000;101.0771331787
937.5000000000;101.0578765869
938.0000000000;101.0907440186
938.5000000000;101.1086502075
939.0000000000;101.0618972778
939.5000000000;101.0990982056
940.0000000000;101.2123107910
940.5000000000;101.2260665894
941.0000000000;101.1552047729
941.5000000000;101.1005096436
942.0000000000;101.1675338745
942.5000000000;101.2436294556
943.0000000000;101.2256317139
943.5000000000;101.2177581787
944.0000000000;101.2566757202
944.5000000000;101.3102798462
945.0000000000;101.3171005249
945.5000000000;101.2780151367
946.0000000000;101.2539901733
946.5000000000;101.3051681519
947.0000000000;101.3780517578
947.5000000000;101.3353347778
948.0000000000;101.3305969238
948.5000000000;101.4441528320
949.0000000000;101.4820327759
949.5000000000;101.4157180786
950.0000000000;101.3582000732
950.5000000000;101.4893035889
951.0000000000;101.5781707764
951.5000000000;101.3487701416
952.0000000000;101.2928314209
952.5000000000;101.4983062744
953.0000000000;101.6060638428
953.5000000000;101.6429824829
954.0000000000;101.6768646240
954.5000000000;101.6797180176
955.0000000000;101.6278839111
955.5000000000;101.5885925293
956.0000000000;101.7340011597
956.5000000000;101.8147201538
957.0000000000;101.6233291626
957.5000000000;101.6002578735
958.0000000000;101.7774124146
958.5000000000;101.8830413818
959.0000000000;101.8983078003
959.5000000000;101.8776702881
960.0000000000;101.8750991821
960.5000000000;101.8573074341
961.0000000000;101.8648071289
961.5000000000;102.0130920410
962.0000000000;102.0422134399
962.5000000000;101.8509674072
963.0000000000;101.8475036621
963.5000000000;101.9666519165
964.0000000000;101.9908523560
964.5000000000;102.0304565430
965.0000000000;102.0767059326
965.5000000000;102.0446319580
966.0000000000;102.0099105835
966.5000000000;102.0230407715
967.0000000000;102.0691223145
967.5000000000;102.1026763916
968.0000000000;102.1053466797
968.5000000000;102.0960540771
969.0000000000;102.0397033691
969.5000000000;101.9604034424
970.0000000000;101.9952621460
970.5000000000;102.0280609131
971.0000000000;101.9462966919
971.5000000000;101.9638977051
972.0000000000;102.1148986816
972.5000000000;102.2645721436
973.0000000000;102.2644958496
973.5000000000;102.1306838989
974.0000000000;102.0306549072
974.5000000000;102.1038436890
975.0000000000;102.2625808716
975.5000000000;102.2277908325
976.0000000000;102.1762084961
976.5000000000;102.2668304443
977.0000000000;102.3452606201
977.5000000000;102.2251968384
978.0000000000;101.9608459473
978.5000000000;102.0451354980
979.0000000000;102.2470626831
979.5000000000;102.1195068359
980.0000000000;102.0225906372
980.5000000000;102.1338043213
981.0000000000;102.3098449707
981.5000000000;102.2490539551
982.0000000000;102.0304031372
982.5000000000;102.0690155029
983.0000000000;102.1866073608
983.5000000000;102.1980361938
984.0000000000;102.1873703003
984.5000000000;102.2477340698
985.0000000000;102.3839416504
985.5000000000;102.4510574341
986.0000000000;102.3493347168
986.5000000000;102.1769485474
987.0000000000;102.3612213135
987.5000000000;102.5781402588
988.0000000000;102.3229827881
988.5000000000;102.3078765869
989.0000000000;102.5618438721
989.5000000000;102.4658050537
990.0000000000;102.3040618896
990.5000000000;102.3146591187
991.0000000000;102.3910140991
991.5000000000;102.4100418091
992.0000000000;102.3307342529
992.5000000000;102.2370605469
993.0000000000;102.2343063354
993.5000000000;102.3078460693
994.0000000000;102.2369384766
994.5000000000;102.1642608643
995.0000000000;102.3127441406
995.5000000000;102.5213546753
996.0000000000;102.4965820313
996.5000000000;102.1188278198
997.0000000000;101.9783172607
997.5000000000;102.2021713257
998.0000000000;102.3988800049
998.5000000000;102.4094161987
999.0000000000;102.3154754639
999.5000000000;102.3440475464
1000.0000000000;102.3782653809
1000.5000000000;102.3232192993
1001.0000000000;102.2986068726
1001.5000000000;102.3875274658
1002.0000000000;102.5564575195
1002.5000000000;102.6202926636
1003.0000000000;102.6473083496
1003.5000000000;102.7558364868
1004.0000000000;102.8114166260
1004.5000000000;102.7393341064
1005.0000000000;102.5915679932
1005.5000000000;102.5725936890
1006.0000000000;102.5786285400
1006.5000000000;102.3693237305
1007.0000000000;102.3485107422
1007.5000000000;102.5995635986
1008.0000000000;102.7256011963
1008.5000000000;102.6408462524
1009.0000000000;102.4287719727
1009.5000000000;102.2592468262
1010.0000000000;102.3064880371
1010.5000000000;102.5488586426
1011.0000000000;102.6595077515
1011.5000000000;102.5816268921
1012.0000000000;102.4690246582
1012.5000000000;102.5576477051
1013.0000000000;102.7425994873
1013.5000000000;102.7623214722
1014.0000000000;102.5686416626
1014.5000000000;102.4119415283
1015.0000000000;102.5606613159
1015.5000000000;102.6671218872
1016.0000000000;102.6504058838
1016.5000000000;102.7383575439
1017.0000000000;102.8077545166
1017.5000000000;102.7823715210
1018.0000000000;102.7135543823
1018.5000000000;102.4211044312
1019.0000000000;102.0699310303
1019.5000000000;102.3169174194
