182.5000000000;12.1757144928
183.0000000000;10.4895296097
183.5000000000;9.9874057770
184.0000000000;10.2410936356
184.5000000000;9.6454992294
185.0000000000;8.0193147659
185.5000000000;6.5757436752
186.0000000000;5.6298813820
186.5000000000;3.8915197849
187.0000000000;1.9154025316
187.5000000000;1.1642301083
188.0000000000;0.9185948968
188.5000000000;0.6714220643
189.0000000000;0.4551966786
189.5000000000;0.3557921350
190.0000000000;0.3068568707
190.5000000000;0.2627760172
191.0000000000;0.2189767808
191.5000000000;0.1903753132
192.0000000000;0.1891408712
192.5000000000;0.2002204508
193.0000000000;0.1764762253
193.5000000000;0.1403477192
194.0000000000;0.1335012764
194.5000000000;0.1408697665
195.0000000000;0.1449737698
195.5000000000;0.1424393654
196.0000000000;0.1307650059
196.5000000000;0.1095274910
197.0000000000;0.1010705456
197.5000000000;0.1173622906
198.0000000000;0.1164890602
198.5000000000;0.0915400237
199.0000000000;0.0815565735
199.5000000000;0.0863833874
200.0000000000;0.0882101357
200.5000000000;0.0851209164
201.0000000000;0.0785229132
201.5000000000;0.0689324513
202.0000000000;0.0615992360
202.5000000000;0.0626182184
203.0000000000;0.0622386932
203.5000000000;0.0540265962
204.0000000000;0.0529436953
204.5000000000;0.0600505844
205.0000000000;0.0581835322
205.5000000000;0.0528656840
206.0000000000;0.0579160936
206.5000000000;0.0628439933
207.0000000000;0.0598257147
207.5000000000;0.0580586456
208.0000000000;0.0618780777
208.5000000000;0.0696259737
209.0000000000;0.0787205100
209.5000000000;0.0844860002
210.0000000000;0.0785501599
210.5000000000;0.0667919964
211.0000000000;0.0684017986
211.5000000000;0.0731396154
212.0000000000;0.0654967576
212.5000000000;0.0638674721
213.0000000000;0.0738343149
213.5000000000;0.0741256326
214.0000000000;0.0665809810
214.5000000000;0.0656071678
215.0000000000;0.0677204654
215.5000000000;0.0674531758
216.0000000000;0.0652484819
216.5000000000;0.0615348853
217.0000000000;0.0565269031
217.5000000000;0.0528744794
218.0000000000;0.0528683551
218.5000000000;0.0556744300
219.0000000000;0.0573578142
219.5000000000;0.0519655086
220.0000000000;0.0429286696
220.5000000000;0.0378171206
221.0000000000;0.0412493162
221.5000000000;0.0492848568
222.0000000000;0.0459018499
222.5000000000;0.0364533179
223.0000000000;0.0397383682
223.5000000000;0.0461159870
224.0000000000;0.0438054949
224.5000000000;0.0429157093
225.0000000000;0.0473208874
225.5000000000;0.0500104390
226.0000000000;0.0499801673
226.5000000000;0.0499035642
227.0000000000;0.0524649061
227.5000000000;0.0565292947
228.0000000000;0.0554144494
228.5000000000;0.0519003049
229.0000000000;0.0538920499
229.5000000000;0.0572496615
230.0000000000;0.0572556034
230.5000000000;0.0564052053
231.0000000000;0.0570564196
231.5000000000;0.0600289293
232.0000000000;0.0627212226
232.5000000000;0.0626730025
233.0000000000;0.0617756397
233.5000000000;0.0614777207
234.0000000000;0.0616032965
234.5000000000;0.0607249476
235.0000000000;0.0580650531
235.5000000000;0.0575895011
236.0000000000;0.0600853413
236.5000000000;0.0599570647
237.0000000000;0.0574477538
237.5000000000;0.0565562695
238.0000000000;0.0565186813
238.5000000000;0.0562862381
239.0000000000;0.0574245155
239.5000000000;0.0587154739
240.0000000000;0.0565878823
240.5000000000;0.0521257110
241.0000000000;0.0485660695
241.5000000000;0.0492723323
242.0000000000;0.0528749712
242.5000000000;0.0526321679
243.0000000000;0.0499677956
243.5000000000;0.0499012358
244.0000000000;0.0508584864
244.5000000000;0.0510472693
245.0000000000;0.0514582880
245.5000000000;0.0531873554
246.0000000000;0.0564296097
246.5000000000;0.0566157252
247.0000000000;0.0516564175
247.5000000000;0.0507552586
248.0000000000;0.0554855280
248.5000000000;0.0570998788
249.0000000000;0.0575879849
249.5000000000;0.0618822202
250.0000000000;0.0622616597
250.5000000000;0.0561132170
251.0000000000;0.0539505742
251.5000000000;0.0601774082
252.0000000000;0.0719215795
252.5000000000;0.0778208300
253.0000000000;0.0735751092
253.5000000000;0.0759190619
254.0000000000;0.0846915767
254.5000000000;0.0836047977
255.0000000000;0.0815000013
255.5000000000;0.0890019909
256.0000000000;0.0893093124
256.5000000000;0.0803794786
257.0000000000;0.0831382275
257.5000000000;0.0975868553
258.0000000000;0.1107188687
258.5000000000;0.1094675586
259.0000000000;0.0951056182
259.5000000000;0.0904714912
260.0000000000;0.0956286862
260.5000000000;0.0964671671
261.0000000000;0.0991773531
261.5000000000;0.1110049784
262.0000000000;0.1276500970
262.5000000000;0.1401170641
263.0000000000;0.1402442753
263.5000000000;0.1451210082
264.0000000000;0.1699471027
264.5000000000;0.1973964572
265.0000000000;0.2198188156
265.5000000000;0.2463487089
266.0000000000;0.2768653631
266.5000000000;0.3064170182
267.0000000000;0.3320717216
267.5000000000;0.3534460664
268.0000000000;0.3734781146
268.5000000000;0.3969234228
269.0000000000;0.4268136322
269.5000000000;0.4532178342
270.0000000000;0.4744801223
270.5000000000;0.5116704702
271.0000000000;0.5605804324
271.5000000000;0.5968196988
272.0000000000;0.6283689141
272.5000000000;0.6705376506
273.0000000000;0.7226439714
273.5000000000;0.7821353674
274.0000000000;0.8475413918
274.5000000000;0.9202029705
275.0000000000;1.0015729666
275.5000000000;1.0884526968
276.0000000000;1.1771405935
276.5000000000;1.2649241686
277.0000000000;1.3550275564
277.5000000000;1.4536902905
278.0000000000;1.5583635569
278.5000000000;1.6632102728
279.0000000000;1.7624014616
279.5000000000;1.8581484556
280.0000000000;1.9589992762
280.5000000000;2.0608408451
281.0000000000;2.1607658863
281.5000000000;2.2748439312
282.0000000000;2.4050436020
282.5000000000;2.5330219269
283.0000000000;2.6629619598
283.5000000000;2.8076188564
284.0000000000;2.9574892521
284.5000000000;3.1084358692
285.0000000000;3.2743108273
285.5000000000;3.4492912292
286.0000000000;3.6158456802
286.5000000000;3.7854373455
287.0000000000;3.9642679691
287.5000000000;4.1308827400
288.0000000000;4.2881255150
288.5000000000;4.4558610916
289.0000000000;4.6135268211
289.5000000000;4.7439184189
290.0000000000;4.8786702156
290.5000000000;5.0191750526
291.0000000000;5.1286778450
291.5000000000;5.2219209671
292.0000000000;5.3258585930
292.5000000000;5.4169359207
293.0000000000;5.4906020164
293.5000000000;5.5793161392
294.0000000000;5.6680798531
294.5000000000;5.7243943214
295.0000000000;5.7794289589
295.5000000000;5.8463163376
296.0000000000;5.8794531822
296.5000000000;5.8937759399
297.0000000000;5.9410696030
297.5000000000;5.9840955734
298.0000000000;5.9888658524
298.5000000000;5.9974942207
299.0000000000;6.0154914856
299.5000000000;6.0082454681
300.0000000000;5.9910211563
300.5000000000;5.9836144447
301.0000000000;5.9536886215
301.5000000000;5.9014263153
302.0000000000;5.8736267090
302.5000000000;5.8606948853
303.0000000000;5.8281850815
303.5000000000;5.7734875679
304.0000000000;5.7107949257
304.5000000000;5.6660156250
305.0000000000;5.6241235733
305.5000000000;5.5523571968
306.0000000000;5.4786801338
306.5000000000;5.4252181053
307.0000000000;5.3645987511
307.5000000000;5.2891535759
308.0000000000;5.2139849663
308.5000000000;5.1490969658
309.0000000000;5.0927691460
309.5000000000;5.0206880569
310.0000000000;4.9300537109
310.5000000000;4.8449068069
311.0000000000;4.7758407593
311.5000000000;4.7212500572
312.0000000000;4.6628141403
312.5000000000;4.5907797813
313.0000000000;4.5124597549
313.5000000000;4.4323568344
314.0000000000;4.3536491394
314.5000000000;4.2850718498
315.0000000000;4.2284193039
315.5000000000;4.1698293686
316.0000000000;4.1056303978
316.5000000000;4.0416851044
317.0000000000;3.9809560776
317.5000000000;3.9230632782
318.0000000000;3.8630049229
318.5000000000;3.8045563698
319.0000000000;3.7589728832
319.5000000000;3.7197763920
320.0000000000;3.6752195358
320.5000000000;3.6233737469
321.0000000000;3.5670614243
321.5000000000;3.5131571293
322.0000000000;3.4710495472
322.5000000000;3.4436388016
323.0000000000;3.4043104649
323.5000000000;3.3513684273
324.0000000000;3.3296701908
324.5000000000;3.3150289059
325.0000000000;3.2538938522
325.5000000000;3.2087030411
326.0000000000;3.2178452015
326.5000000000;3.2039620876
327.0000000000;3.1521339417
327.5000000000;3.1092379093
328.0000000000;3.0863587856
328.5000000000;3.0730850697
329.0000000000;3.0428900719
329.5000000000;3.0009050369
330.0000000000;2.9830737114
330.5000000000;2.9765276909
331.0000000000;2.9551026821
331.5000000000;2.9250946045
332.0000000000;2.8958036900
332.5000000000;2.8721697330
333.0000000000;2.8566868305
333.5000000000;2.8467144966
334.0000000000;2.8255770206
334.5000000000;2.7952070236
335.0000000000;2.7879109383
335.5000000000;2.7857153416
336.0000000000;2.7486448288
336.5000000000;2.7080602646
337.0000000000;2.6903562546
337.5000000000;2.6730184555
338.0000000000;2.6472463608
338.5000000000;2.6206772327
339.0000000000;2.6023385525
339.5000000000;2.5933003426
340.0000000000;2.5764923096
340.5000000000;2.5510346889
341.0000000000;2.5316553116
341.5000000000;2.5101637840
342.0000000000;2.4759519100
342.5000000000;2.4409093857
343.0000000000;2.4158613682
343.5000000000;2.4027981758
344.0000000000;2.3832912445
344.5000000000;2.3403582573
345.0000000000;2.2977650166
345.5000000000;2.2710144520
346.0000000000;2.2507307529
346.5000000000;2.2223653793
347.0000000000;2.1782248020
347.5000000000;2.1480486393
348.0000000000;2.1403157711
348.5000000000;2.1127426624
349.0000000000;2.0672094822
349.5000000000;2.0354654789
350.0000000000;2.0086874962
350.5000000000;1.9746533632
351.0000000000;1.9416850805
351.5000000000;1.9117860794
352.0000000000;1.8803386688
352.5000000000;1.8517675400
353.0000000000;1.8244796991
353.5000000000;1.7741079330
354.0000000000;1.7130808830
354.5000000000;1.6885828972
355.0000000000;1.6776235104
355.5000000000;1.6399573088
356.0000000000;1.5864402056
356.5000000000;1.5370362997
357.0000000000;1.5082823038
357.5000000000;1.4885390997
358.0000000000;1.4576971531
358.5000000000;1.4243361950
359.0000000000;1.3974496126
359.5000000000;1.3773303032
360.0000000000;1.3511351347
360.5000000000;1.3088114262
361.0000000000;1.2598177195
361.5000000000;1.2065726519
362.0000000000;1.1636270285
362.5000000000;1.1338177919
363.0000000000;1.1085577011
363.5000000000;1.0949637890
364.0000000000;1.0892088413
364.5000000000;1.0551949739
365.0000000000;1.0064009428
365.5000000000;0.9938615561
366.0000000000;0.9853436947
366.5000000000;0.9425640702
367.0000000000;0.9011404514
367.5000000000;0.8776150346
368.0000000000;0.8577002883
368.5000000000;0.8385236859
369.0000000000;0.8204624057
369.5000000000;0.7951848507
370.0000000000;0.7634289861
370.5000000000;0.7397745252
371.0000000000;0.7274054885
371.5000000000;0.7209329605
372.0000000000;0.7114630342
372.5000000000;0.6947027445
373.0000000000;0.6747683883
373.5000000000;0.6527270079
374.0000000000;0.6284868717
374.5000000000;0.6081402302
375.0000000000;0.5946245790
375.5000000000;0.5822970271
376.0000000000;0.5706155300
376.5000000000;0.5619814992
377.0000000000;0.5488010645
377.5000000000;0.5298425555
378.0000000000;0.5226958990
378.5000000000;0.5248573422
379.0000000000;0.5163801312
379.5000000000;0.4959233403
380.0000000000;0.4753285050
380.5000000000;0.4810924828
381.0000000000;0.4964899421
381.5000000000;0.4662288427
382.0000000000;0.4272668064
382.5000000000;0.4327838123
383.0000000000;0.4499649704
383.5000000000;0.4574319422
384.0000000000;0.4628711343
384.5000000000;0.4596958458
385.0000000000;0.4405803084
385.5000000000;0.4236018956
386.0000000000;0.4206116796
386.5000000000;0.4263134599
387.0000000000;0.4267253280
387.5000000000;0.4114279747
388.0000000000;0.4007533193
388.5000000000;0.4038707614
389.0000000000;0.4025634229
389.5000000000;0.4055998623
390.0000000000;0.4318406582
390.5000000000;0.4428860247
391.0000000000;0.4192614555
391.5000000000;0.4059531689
392.0000000000;0.4118747413
392.5000000000;0.4163494110
393.0000000000;0.4233870804
393.5000000000;0.4382021725
394.0000000000;0.4502869546
394.5000000000;0.4522269070
395.0000000000;0.4439488351
395.5000000000;0.4359787703
396.0000000000;0.4392269552
396.5000000000;0.4539110363
397.0000000000;0.4700560570
397.5000000000;0.4718726277
398.0000000000;0.4605938792
398.5000000000;0.4431455135
399.0000000000;0.4220972061
399.5000000000;0.4146457314
400.0000000000;0.4491147697
400.5000000000;0.4845951200
401.0000000000;0.4711426795
401.5000000000;0.4500118792
402.0000000000;0.4552868903
402.5000000000;0.4848585427
403.0000000000;0.5082237124
403.5000000000;0.4988184273
404.0000000000;0.4934100509
404.5000000000;0.5099998713
405.0000000000;0.5222094655
405.5000000000;0.5320175290
406.0000000000;0.5523406863
406.5000000000;0.5632404089
407.0000000000;0.5593292713
407.5000000000;0.5711492896
408.0000000000;0.6044865251
408.5000000000;0.6413668394
409.0000000000;0.6564921141
409.5000000000;0.6471122503
410.0000000000;0.6507584453
410.5000000000;0.6801207662
411.0000000000;0.7219433188
411.5000000000;0.7451003790
412.0000000000;0.7421122193
412.5000000000;0.7623195648
413.0000000000;0.8034960628
413.5000000000;0.8281044364
414.0000000000;0.8543285131
414.5000000000;0.9011904597
415.0000000000;0.9440020919
415.5000000000;0.9731043577
416.0000000000;1.0026793480
416.5000000000;1.0481271744
417.0000000000;1.1092991829
417.5000000000;1.1527323723
418.0000000000;1.1817678213
418.5000000000;1.2366248369
419.0000000000;1.3079279661
419.5000000000;1.3681889772
420.0000000000;1.4175422192
420.5000000000;1.4687317610
421.0000000000;1.5366958380
421.5000000000;1.6101616621
422.0000000000;1.6774258614
422.5000000000;1.7517921925
423.0000000000;1.8343590498
423.5000000000;1.9109865427
424.0000000000;1.9874320030
424.5000000000;2.0814976692
425.0000000000;2.1988646984
425.5000000000;2.3217043877
426.0000000000;2.4284651279
426.5000000000;2.5335121155
427.0000000000;2.6493208408
427.5000000000;2.7622058392
428.0000000000;2.8771352768
428.5000000000;3.0080287457
429.0000000000;3.1481616497
429.5000000000;3.2773528099
430.0000000000;3.4173624516
430.5000000000;3.5818886757
431.0000000000;3.7376084328
431.5000000000;3.8934130669
432.0000000000;4.0791020393
432.5000000000;4.2620100975
433.0000000000;4.4224205017
433.5000000000;4.5920023918
434.0000000000;4.7756195068
434.5000000000;4.9852976799
435.0000000000;5.2074327469
435.5000000000;5.4041309357
436.0000000000;5.6052718163
436.5000000000;5.8252291679
437.0000000000;6.0467085838
437.5000000000;6.2689762115
438.0000000000;6.4965510368
438.5000000000;6.7358384132
439.0000000000;6.9887299538
439.5000000000;7.2507715225
440.0000000000;7.5080723763
440.5000000000;7.7589049339
441.0000000000;8.0283575058
441.5000000000;8.2959051132
442.0000000000;8.5576601028
442.5000000000;8.8424482346
443.0000000000;9.1443138123
443.5000000000;9.4477357864
444.0000000000;9.7446165085
444.5000000000;10.0359869003
445.0000000000;10.3329858780
445.5000000000;10.6448936462
446.0000000000;10.9626741409
446.5000000000;11.2789096832
447.0000000000;11.6018218994
447.5000000000;11.9415073395
448.0000000000;12.2906723022
448.5000000000;12.6252498627
449.0000000000;12.9462375641
449.5000000000;13.2835245132
450.0000000000;13.6418199539
450.5000000000;14.0097999573
451.0000000000;14.3707036972
451.5000000000;14.7253780365
452.0000000000;15.0992517471
452.5000000000;15.4771614075
453.0000000000;15.8360643387
453.5000000000;16.1962375641
454.0000000000;16.5741119385
454.5000000000;16.9694271088
455.0000000000;17.3674430847
455.5000000000;17.7540912628
456.0000000000;18.1394309998
456.5000000000;18.5327777863
457.0000000000;18.9296417236
457.5000000000;19.3232021332
458.0000000000;19.7112312317
458.5000000000;20.0997333527
459.0000000000;20.5079269409
459.5000000000;20.9370651245
460.0000000000;21.3675746918
460.5000000000;21.7911415100
461.0000000000;22.2238216400
461.5000000000;22.6572971344
462.0000000000;23.0762252808
462.5000000000;23.4869995117
463.0000000000;23.8791046143
463.5000000000;24.2780952454
464.0000000000;24.7168140411
464.5000000000;25.1478595734
465.0000000000;25.5620517731
465.5000000000;26.0004940033
466.0000000000;26.4488201141
466.5000000000;26.8878421783
467.0000000000;27.3389644623
467.5000000000;27.7988224030
468.0000000000;28.2430381775
468.5000000000;28.6669101715
469.0000000000;29.0994338989
469.5000000000;29.5735130310
470.0000000000;30.0601711273
470.5000000000;30.5085411072
471.0000000000;30.9388694763
471.5000000000;31.3773574829
472.0000000000;31.8124237061
472.5000000000;32.2401313782
473.0000000000;32.6630706787
473.5000000000;33.0923728943
474.0000000000;33.5517044067
474.5000000000;34.0261116028
475.0000000000;34.4849700928
475.5000000000;34.9247131348
476.0000000000;35.3519058228
476.5000000000;35.7744178772
477.0000000000;36.2004394531
477.5000000000;36.6420326233
478.0000000000;37.0977821350
478.5000000000;37.5314674377
479.0000000000;37.9456100464
479.5000000000;38.3780326843
480.0000000000;38.8176498413
480.5000000000;39.2462615967
481.0000000000;39.6615104675
481.5000000000;40.0676651001
482.0000000000;40.4896965027
482.5000000000;40.9155044556
483.0000000000;41.3120994568
483.5000000000;41.7202110291
484.0000000000;42.1359672546
484.5000000000;42.4551773071
485.0000000000;42.8361320496
485.5000000000;43.3934326172
486.0000000000;43.7415428162
486.5000000000;43.8866996765
487.0000000000;44.2444763184
487.5000000000;44.8535804749
488.0000000000;45.3178291321
488.5000000000;45.6658363342
489.0000000000;46.0602989197
489.5000000000;46.4467353821
490.0000000000;46.8007736206
490.5000000000;47.1671791077
491.0000000000;47.5490570068
491.5000000000;47.9275856018
492.0000000000;48.2881050110
492.5000000000;48.6286811829
493.0000000000;48.9637222290
493.5000000000;49.3064002991
494.0000000000;49.6747398376
494.5000000000;50.0642127991
495.0000000000;50.4417762756
495.5000000000;50.7775878906
496.0000000000;51.0979385376
496.5000000000;51.4221076965
497.0000000000;51.7346649170
497.5000000000;52.0517272949
498.0000000000;52.3840637207
498.5000000000;52.6840820313
499.0000000000;52.9447898865
499.5000000000;53.2527046204
500.0000000000;53.6052246094
500.5000000000;53.9164657593
501.0000000000;54.1926231384
501.5000000000;54.4689674377
502.0000000000;54.7720222473
502.5000000000;55.0908622742
503.0000000000;55.3747673035
503.5000000000;55.6422996521
504.0000000000;55.9272575378
504.5000000000;56.2189865112
505.0000000000;56.4971771240
505.5000000000;56.7511100769
506.0000000000;57.0162658691
506.5000000000;57.3101234436
507.0000000000;57.5822677612
507.5000000000;57.8287353516
508.0000000000;58.0786705017
508.5000000000;58.3343772888
509.0000000000;58.5984573364
509.5000000000;58.8635368347
510.0000000000;59.1124763489
510.5000000000;59.3375244141
511.0000000000;59.5645332336
511.5000000000;59.8079071045
512.0000000000;60.0466690063
512.5000000000;60.2821502686
513.0000000000;60.5279388428
513.5000000000;60.7804565430
514.0000000000;61.0281906128
514.5000000000;61.2515602112
515.0000000000;61.4658966064
515.5000000000;61.7012443542
516.0000000000;61.9297142029
516.5000000000;62.1375122070
517.0000000000;62.3578796387
517.5000000000;62.5824661255
518.0000000000;62.7826614380
518.5000000000;62.9860343933
519.0000000000;63.2086105347
519.5000000000;63.4220581055
520.0000000000;63.6259307861
520.5000000000;63.8372650146
521.0000000000;64.0447006226
521.5000000000;64.2402725220
522.0000000000;64.4417648315
522.5000000000;64.6503601074
523.0000000000;64.8531417847
523.5000000000;65.0555725098
524.0000000000;65.2591629028
524.5000000000;65.4478912354
525.0000000000;65.6239166260
525.5000000000;65.8010635376
526.0000000000;65.9830780029
526.5000000000;66.1665954590
527.0000000000;66.3433609009
527.5000000000;66.5173950195
528.0000000000;66.6965179443
528.5000000000;66.8746643066
529.0000000000;67.0504074097
529.5000000000;67.2344589233
530.0000000000;67.4154281616
530.5000000000;67.5779342651
531.0000000000;67.7458419800
531.5000000000;67.9277648926
532.0000000000;68.1013870239
532.5000000000;68.2649307251
533.0000000000;68.4250640869
533.5000000000;68.5774078369
534.0000000000;68.7263259888
534.5000000000;68.8864669800
535.0000000000;69.0521240234
535.5000000000;69.2122955322
536.0000000000;69.3772125244
536.5000000000;69.5460815430
537.0000000000;69.6999664307
537.5000000000;69.8475112915
538.0000000000;70.0013351440
538.5000000000;70.1426467896
539.0000000000;70.2756423950
539.5000000000;70.4310836792
540.0000000000;70.5994262695
540.5000000000;70.7589340210
541.0000000000;70.9105224609
541.5000000000;71.0550689697
542.0000000000;71.1902008057
542.5000000000;71.3317108154
543.0000000000;71.4931945801
543.5000000000;71.6514205933
544.0000000000;71.7944335938
544.5000000000;71.9329376221
545.0000000000;72.0746002197
545.5000000000;72.2210159302
546.0000000000;72.3638458252
546.5000000000;72.5001983643
547.0000000000;72.6333694458
547.5000000000;72.7574386597
548.0000000000;72.8739547729
548.5000000000;73.0077896118
549.0000000000;73.1623611450
549.5000000000;73.3173599243
550.0000000000;73.4600830078
550.5000000000;73.5924224854
551.0000000000;73.7331848145
551.5000000000;73.8759231567
552.0000000000;73.9990997314
552.5000000000;74.1235351563
553.0000000000;74.2618103027
553.5000000000;74.3829879761
554.0000000000;74.4958724976
554.5000000000;74.6333312988
555.0000000000;74.7680511475
555.5000000000;74.8816299438
556.0000000000;75.0047836304
556.5000000000;75.1399765015
557.0000000000;75.2697219849
557.5000000000;75.3927078247
558.0000000000;75.5134429932
558.5000000000;75.6392211914
559.0000000000;75.7694702148
559.5000000000;75.8960723877
560.0000000000;76.0126800537
560.5000000000;76.1237487793
561.0000000000;76.2439422607
561.5000000000;76.3659744263
562.0000000000;76.4789886475
562.5000000000;76.6047973633
563.0000000000;76.7440719604
563.5000000000;76.8663787842
564.0000000000;76.9755630493
564.5000000000;77.0877151489
565.0000000000;77.2029113770
565.5000000000;77.3220062256
566.0000000000;77.4471206665
566.5000000000;77.5668334961
567.0000000000;77.6697998047
567.5000000000;77.7663345337
568.0000000000;77.8484802246
568.5000000000;77.8855895996
569.0000000000;77.9043579102
569.5000000000;77.9506072998
570.0000000000;78.0495986938
570.5000000000;78.1869964600
571.0000000000;78.2932815552
571.5000000000;78.2897033691
572.0000000000;78.2433166504
572.5000000000;78.3734970093
573.0000000000;78.6175765991
573.5000000000;78.7713928223
574.0000000000;78.8297576904
574.5000000000;78.8492126465
575.0000000000;78.8874893188
575.5000000000;78.9760894775
576.0000000000;79.1260223389
576.5000000000;79.3550033569
577.0000000000;79.5831222534
577.5000000000;79.5885086060
578.0000000000;79.5462951660
578.5000000000;79.7758636475
579.0000000000;80.1518478394
579.5000000000;80.4221191406
580.0000000000;80.4088592529
580.5000000000;80.2327804565
581.0000000000;80.1075515747
581.5000000000;79.9742431641
582.0000000000;79.8720626831
582.5000000000;79.9814910889
583.0000000000;80.2248306274
583.5000000000;80.3809356689
584.0000000000;80.4080352783
584.5000000000;80.3949661255
585.0000000000;80.4746322632
585.5000000000;80.6164627075
586.0000000000;80.7453002930
586.5000000000;80.8638916016
587.0000000000;80.9707183838
587.5000000000;81.0490417480
588.0000000000;81.1071243286
588.5000000000;81.1768798828
589.0000000000;81.3102569580
589.5000000000;81.4918060303
590.0000000000;81.6400375366
590.5000000000;81.7519149780
591.0000000000;81.8505020142
591.5000000000;81.9389038086
592.0000000000;82.0348281860
592.5000000000;82.1491546631
593.0000000000;82.2348785400
593.5000000000;82.2995071411
594.0000000000;82.4331130981
594.5000000000;82.5898208618
595.0000000000;82.6787872314
595.5000000000;82.7836151123
596.0000000000;82.9486618042
596.5000000000;83.0954055786
597.0000000000;83.2061691284
597.5000000000;83.3136062622
598.0000000000;83.4473800659
598.5000000000;83.5986099243
599.0000000000;83.7139358521
599.5000000000;83.8096313477
600.0000000000;83.9166946411
600.5000000000;84.0020751953
601.0000000000;84.0586471558
601.5000000000;84.1213760376
602.0000000000;84.2255706787
602.5000000000;84.3684844971
603.0000000000;84.4746704102
603.5000000000;84.5358428955
604.0000000000;84.6061630249
604.5000000000;84.7144393921
605.0000000000;84.8403320313
605.5000000000;84.9191589355
606.0000000000;84.9594497681
606.5000000000;85.0070648193
607.0000000000;85.0630798340
607.5000000000;85.1198883057
608.0000000000;85.1718750000
608.5000000000;85.2271957397
609.0000000000;85.2905960083
609.5000000000;85.3194046021
610.0000000000;85.3162689209
610.5000000000;85.3471679688
611.0000000000;85.3973007202
611.5000000000;85.4281768799
612.0000000000;85.4602279663
612.5000000000;85.4947052002
613.0000000000;85.5059051514
613.5000000000;85.5198211670
614.0000000000;85.5617599487
614.5000000000;85.6030120850
615.0000000000;85.6312561035
615.5000000000;85.6563873291
616.0000000000;85.6964416504
616.5000000000;85.7609329224
617.0000000000;85.8300018311
617.5000000000;85.8759384155
618.0000000000;85.8851165771
618.5000000000;85.8903656006
619.0000000000;85.9164886475
619.5000000000;85.9540328979
620.0000000000;85.9952163696
620.5000000000;86.0435180664
621.0000000000;86.1219024658
621.5000000000;86.2064819336
622.0000000000;86.2235641479
622.5000000000;86.2300491333
623.0000000000;86.3033218384
623.5000000000;86.3870010376
624.0000000000;86.4527206421
624.5000000000;86.5270385742
625.0000000000;86.6202163696
625.5000000000;86.7206802368
626.0000000000;86.7882003784
626.5000000000;86.8316879272
627.0000000000;86.8961563110
627.5000000000;86.9622955322
628.0000000000;87.0157089233
628.5000000000;87.0891342163
629.0000000000;87.1747360229
629.5000000000;87.2451171875
630.0000000000;87.3270187378
630.5000000000;87.4322891235
631.0000000000;87.5276794434
631.5000000000;87.6013870239
632.0000000000;87.6600036621
632.5000000000;87.7147598267
633.0000000000;87.7734603882
633.5000000000;87.8380279541
634.0000000000;87.9067611694
634.5000000000;87.9749298096
635.0000000000;88.0343246460
635.5000000000;88.0810699463
636.0000000000;88.1183547974
636.5000000000;88.1592864990
637.0000000000;88.2108154297
637.5000000000;88.2594070435
638.0000000000;88.3080749512
638.5000000000;88.3704071045
639.0000000000;88.4296646118
639.5000000000;88.4719924927
640.0000000000;88.5052337646
640.5000000000;88.5441055298
641.0000000000;88.5967102051
641.5000000000;88.6350631714
642.0000000000;88.6549835205
642.5000000000;88.6901702881
643.0000000000;88.7213287354
643.5000000000;88.7256774902
644.0000000000;88.7489624023
644.5000000000;88.7973937988
645.0000000000;88.8286209106
645.5000000000;88.8456802368
646.0000000000;88.8650817871
646.5000000000;88.8893508911
647.0000000000;88.9168090820
647.5000000000;88.9423675537
648.0000000000;88.9537429810
648.5000000000;88.9543762207
649.0000000000;88.9753112793
649.5000000000;89.0086059570
650.0000000000;89.0292129517
650.5000000000;89.0520248413
651.0000000000;89.0830917358
651.5000000000;89.1057739258
652.0000000000;89.1239166260
652.5000000000;89.1453323364
653.0000000000;89.1580734253
653.5000000000;89.1965942383
654.0000000000;89.2888183594
654.5000000000;89.1060104370
655.0000000000;88.6678237915
655.5000000000;89.0040969849
656.0000000000;89.1218719482
656.5000000000;88.4409255981
657.0000000000;87.6757965088
657.5000000000;88.8070602417
658.0000000000;89.6659011841
658.5000000000;89.5329055786
659.0000000000;89.5863952637
659.5000000000;89.7326126099
660.0000000000;89.7852249146
660.5000000000;89.8290405273
661.0000000000;89.8827438354
661.5000000000;89.9362335205
662.0000000000;90.0142974854
662.5000000000;90.0995864868
663.0000000000;90.1413192749
663.5000000000;90.1765670776
664.0000000000;90.2450256348
664.5000000000;90.3235626221
665.0000000000;90.3929595947
665.5000000000;90.4514923096
666.0000000000;90.5303192139
666.5000000000;90.6301574707
667.0000000000;90.6965332031
667.5000000000;90.7410202026
668.0000000000;90.8000106812
668.5000000000;90.8525619507
669.0000000000;90.8901367188
669.5000000000;90.9316406250
670.0000000000;90.9846343994
670.5000000000;91.0450439453
671.0000000000;91.0952529907
671.5000000000;91.1366653442
672.0000000000;91.1855392456
672.5000000000;91.2355117798
673.0000000000;91.2817306519
673.5000000000;91.3336105347
674.0000000000;91.3817901611
674.5000000000;91.4149856567
675.0000000000;91.4649810791
675.5000000000;91.5298156738
676.0000000000;91.5584564209
676.5000000000;91.5797348022
677.0000000000;91.6347656250
677.5000000000;91.6845245361
678.0000000000;91.7128753662
678.5000000000;91.7393875122
679.0000000000;91.7749633789
679.5000000000;91.8145141602
680.0000000000;91.8330307007
680.5000000000;91.8495635986
681.0000000000;91.8992462158
681.5000000000;91.9388732910
682.0000000000;91.9481964111
682.5000000000;91.9681167603
683.0000000000;92.0039367676
683.5000000000;92.0371246338
684.0000000000;92.0474548340
684.5000000000;92.0290908813
685.0000000000;91.9965133667
685.5000000000;91.9943389893
686.0000000000;92.0454635620
686.5000000000;92.1005783081
687.0000000000;92.1301498413
687.5000000000;92.1352996826
688.0000000000;92.1408996582
688.5000000000;92.1584091187
689.0000000000;92.1685943604
689.5000000000;92.1654052734
690.0000000000;92.1559295654
690.5000000000;92.1578979492
691.0000000000;92.1705169678
691.5000000000;92.1726913452
692.0000000000;92.1694488525
692.5000000000;92.1742248535
693.0000000000;92.1920318604
693.5000000000;92.2205352783
694.0000000000;92.2522354126
694.5000000000;92.2771453857
695.0000000000;92.2955780029
695.5000000000;92.3252334595
696.0000000000;92.3592529297
696.5000000000;92.3784866333
697.0000000000;92.3808593750
697.5000000000;92.3879318237
698.0000000000;92.4362869263
698.5000000000;92.4970016479
699.0000000000;92.5342254639
699.5000000000;92.5700149536
700.0000000000;92.6112899780
700.5000000000;92.6466445923
701.0000000000;92.6777801514
701.5000000000;92.7099609375
702.0000000000;92.7462615967
702.5000000000;92.7849502563
703.0000000000;92.8253479004
703.5000000000;92.8774490356
704.0000000000;92.9366683960
704.5000000000;92.9823455811
705.0000000000;93.0195846558
705.5000000000;93.0571746826
706.0000000000;93.0845794678
706.5000000000;93.1036605835
707.0000000000;93.1294708252
707.5000000000;93.1745834351
708.0000000000;93.2371673584
708.5000000000;93.2946090698
709.0000000000;93.3508453369
709.5000000000;93.4182205200
710.0000000000;93.4757003784
710.5000000000;93.5167770386
711.0000000000;93.5588684082
711.5000000000;93.6013717651
712.0000000000;93.6379623413
712.5000000000;93.6699371338
713.0000000000;93.7044830322
713.5000000000;93.7492523193
714.0000000000;93.7970046997
714.5000000000;93.8400192261
715.0000000000;93.8766479492
715.5000000000;93.9162826538
716.0000000000;93.9703292847
716.5000000000;94.0348281860
717.0000000000;94.1017303467
717.5000000000;94.1631622314
718.0000000000;94.2142868042
718.5000000000;94.2586669922
719.0000000000;94.3126754761
719.5000000000;94.3763580322
720.0000000000;94.4374313354
720.5000000000;94.4854049683
721.0000000000;94.5263137817
721.5000000000;94.5850219727
722.0000000000;94.6428833008
722.5000000000;94.6778793335
723.0000000000;94.7223052979
723.5000000000;94.7758026123
724.0000000000;94.8062973022
724.5000000000;94.8303298950
725.0000000000;94.8633041382
725.5000000000;94.8882980347
726.0000000000;94.9091262817
726.5000000000;94.9406356812
727.0000000000;94.9778900146
727.5000000000;95.0181884766
728.0000000000;95.0663452148
728.5000000000;95.1105957031
729.0000000000;95.1411895752
729.5000000000;95.1718139648
730.0000000000;95.1992874146
730.5000000000;95.2067031860
731.0000000000;95.1999588013
731.5000000000;95.2030792236
732.0000000000;95.2519912720
732.5000000000;95.3205032349
733.0000000000;95.3573913574
733.5000000000;95.3563003540
734.0000000000;95.3397369385
734.5000000000;95.3437423706
735.0000000000;95.3574142456
735.5000000000;95.3678588867
736.0000000000;95.3945159912
736.5000000000;95.4308166504
737.0000000000;95.4557647705
737.5000000000;95.4837188721
738.0000000000;95.5211029053
738.5000000000;95.5492630005
739.0000000000;95.5531921387
739.5000000000;95.5343017578
740.0000000000;95.5248260498
740.5000000000;95.5384979248
741.0000000000;95.5668182373
741.5000000000;95.5934677124
742.0000000000;95.6079101563
742.5000000000;95.6156768799
743.0000000000;95.6297378540
743.5000000000;95.6554107666
744.0000000000;95.6632308960
744.5000000000;95.6547393799
745.0000000000;95.6664886475
745.5000000000;95.6856689453
746.0000000000;95.6940536499
746.5000000000;95.7043304443
747.0000000000;95.7105026245
747.5000000000;95.7012252808
748.0000000000;95.7104339600
748.5000000000;95.7426147461
749.0000000000;95.7537155151
749.5000000000;95.7602310181
750.0000000000;95.7832717896
750.5000000000;95.7804718018
751.0000000000;95.7750015259
751.5000000000;95.8312377930
752.0000000000;95.8819885254
752.5000000000;95.8759918213
753.0000000000;95.8554763794
753.5000000000;95.8394088745
754.0000000000;95.8361511230
754.5000000000;95.8790512085
755.0000000000;95.9480819702
755.5000000000;95.9720458984
756.0000000000;95.9509353638
756.5000000000;95.9168319702
757.0000000000;95.9059829712
757.5000000000;95.9209060669
758.0000000000;95.9430694580
758.5000000000;95.9617538452
759.0000000000;95.9853668213
759.5000000000;96.0372695923
760.0000000000;96.0976943970
760.5000000000;96.1440658569
761.0000000000;96.1873931885
761.5000000000;96.2358474731
762.0000000000;96.2904281616
762.5000000000;96.3396606445
763.0000000000;96.3691253662
763.5000000000;96.3734512329
764.0000000000;96.3812103271
764.5000000000;96.4178466797
765.0000000000;96.4602966309
765.5000000000;96.5097579956
766.0000000000;96.5865554810
766.5000000000;96.6680908203
767.0000000000;96.7211074829
767.5000000000;96.7222747803
768.0000000000;96.7015075684
768.5000000000;96.7002716064
769.0000000000;96.7088851929
769.5000000000;96.7464294434
770.0000000000;96.8507003784
770.5000000000;96.9454727173
771.0000000000;96.9741363525
771.5000000000;96.9959793091
772.0000000000;97.0521392822
772.5000000000;97.1400070190
773.0000000000;97.1847000122
773.5000000000;97.1854858398
774.0000000000;97.2252807617
774.5000000000;97.2950973511
775.0000000000;97.3575439453
775.5000000000;97.3973388672
776.0000000000;97.4227371216
776.5000000000;97.4510726929
777.0000000000;97.4778671265
777.5000000000;97.5007629395
778.0000000000;97.5253295898
778.5000000000;97.5497131348
779.0000000000;97.5657119751
779.5000000000;97.5617218018
780.0000000000;97.5719528198
780.5000000000;97.6371231079
781.0000000000;97.6801147461
781.5000000000;97.6729507446
782.0000000000;97.6876068115
782.5000000000;97.7205657959
783.0000000000;97.7459793091
783.5000000000;97.7772064209
784.0000000000;97.8239288330
784.5000000000;97.8813171387
785.0000000000;97.9130401611
785.5000000000;97.9183349609
786.0000000000;97.9531555176
786.5000000000;98.0022964478
787.0000000000;98.0288085938
787.5000000000;98.0401992798
788.0000000000;98.0435791016
788.5000000000;98.0432128906
789.0000000000;98.0614395142
789.5000000000;98.0971374512
790.0000000000;98.1122589111
790.5000000000;98.1288909912
791.0000000000;98.1759796143
791.5000000000;98.2115936279
792.0000000000;98.2283782959
792.5000000000;98.2531280518
793.0000000000;98.2725677490
793.5000000000;98.2676086426
794.0000000000;98.2352752686
794.5000000000;98.2171707153
795.0000000000;98.2524261475
795.5000000000;98.3094787598
796.0000000000;98.3558120728
796.5000000000;98.3763656616
797.0000000000;98.3936843872
797.5000000000;98.4137725830
798.0000000000;98.4029312134
798.5000000000;98.3867568970
799.0000000000;98.4030685425
799.5000000000;98.4228439331
800.0000000000;98.4316864014
800.5000000000;98.4395599365
801.0000000000;98.4502792358
801.5000000000;98.4642791748
802.0000000000;98.4807586670
802.5000000000;98.5026550293
803.0000000000;98.5287551880
803.5000000000;98.5420608521
804.0000000000;98.5469207764
804.5000000000;98.5635681152
805.0000000000;98.5750503540
805.5000000000;98.5664520264
806.0000000000;98.5474014282
806.5000000000;98.5355682373
807.0000000000;98.5462112427
807.5000000000;98.5776748657
808.0000000000;98.6083526611
808.5000000000;98.6106948853
809.0000000000;98.6091766357
809.5000000000;98.6250228882
810.0000000000;98.6459808350
810.5000000000;98.6520080566
811.0000000000;98.6384506226
811.5000000000;98.6472091675
812.0000000000;98.6758804321
812.5000000000;98.6834411621
813.0000000000;98.6836013794
813.5000000000;98.6867446899
814.0000000000;98.6750259399
814.5000000000;98.6758880615
815.0000000000;98.7122039795
815.5000000000;98.7261734009
816.0000000000;98.7205200195
816.5000000000;98.7481307983
817.0000000000;98.7786636353
817.5000000000;98.7885055542
818.0000000000;98.8011779785
818.5000000000;98.8209228516
819.0000000000;98.8386688232
819.5000000000;98.8427124023
820.0000000000;98.8287963867
820.5000000000;98.8062896729
821.0000000000;98.8123550415
821.5000000000;98.8487777710
822.0000000000;98.8636322021
822.5000000000;98.8693695068
823.0000000000;98.8877639771
823.5000000000;98.8836135864
824.0000000000;98.8724212646
824.5000000000;98.8993148804
825.0000000000;98.9319000244
825.5000000000;98.9443054199
826.0000000000;98.9453887939
826.5000000000;98.9340057373
827.0000000000;98.9181213379
827.5000000000;98.9342117310
828.0000000000;98.9713134766
828.5000000000;98.9934692383
829.0000000000;99.0165023804
829.5000000000;99.0481338501
830.0000000000;99.0724258423
830.5000000000;99.0851135254
831.0000000000;99.0898666382
831.5000000000;99.0951690674
832.0000000000;99.1004028320
832.5000000000;99.0993270874
833.0000000000;99.0900268555
833.5000000000;99.0849304199
834.0000000000;99.1009063721
834.5000000000;99.0932083130
835.0000000000;99.0544357300
835.5000000000;99.0751876831
836.0000000000;99.1276779175
836.5000000000;99.1387481689
837.0000000000;99.1465148926
837.5000000000;99.1619567871
838.0000000000;99.1578826904
838.5000000000;99.1642456055
839.0000000000;99.1918945313
839.5000000000;99.1951599121
840.0000000000;99.1830215454
840.5000000000;99.1837692261
841.0000000000;99.1897430420
841.5000000000;99.1910400391
842.0000000000;99.1853561401
842.5000000000;99.1892395020
843.0000000000;99.2105102539
843.5000000000;99.2355804443
844.0000000000;99.2426147461
844.5000000000;99.2299346924
845.0000000000;99.2443084717
845.5000000000;99.2676620483
846.0000000000;99.2546615601
846.5000000000;99.2671737671
847.0000000000;99.3149795532
847.5000000000;99.3250350952
848.0000000000;99.3207626343
848.5000000000;99.3284301758
849.0000000000;99.3040390015
849.5000000000;99.2784194946
850.0000000000;99.3021469116
850.5000000000;99.3122253418
851.0000000000;99.2954864502
851.5000000000;99.3001098633
852.0000000000;99.2891464233
852.5000000000;99.2405853271
853.0000000000;99.2017440796
853.5000000000;99.1905059814
854.0000000000;99.1988067627
854.5000000000;99.2008590698
855.0000000000;99.2041625977
855.5000000000;99.2332763672
856.0000000000;99.2411422729
856.5000000000;99.2191162109
857.0000000000;99.2296524048
857.5000000000;99.2418670654
858.0000000000;99.2239303589
858.5000000000;99.2372894287
859.0000000000;99.2525100708
859.5000000000;99.2107162476
860.0000000000;99.2181320190
860.5000000000;99.2820892334
861.0000000000;99.2775650024
861.5000000000;99.2393951416
862.0000000000;99.2317123413
862.5000000000;99.2525939941
863.0000000000;99.2655563354
863.5000000000;99.2471618652
864.0000000000;99.2559432983
864.5000000000;99.2896652222
865.0000000000;99.2889862061
865.5000000000;99.2636566162
866.0000000000;99.2458419800
866.5000000000;99.2603225708
867.0000000000;99.2686691284
867.5000000000;99.2444992065
868.0000000000;99.2517013550
868.5000000000;99.2789077759
869.0000000000;99.2767715454
869.5000000000;99.2997741699
870.0000000000;99.3353118896
870.5000000000;99.2913131714
871.0000000000;99.2373352051
871.5000000000;99.2434539795
872.0000000000;99.2678222656
872.5000000000;99.2647476196
873.0000000000;99.2273788452
873.5000000000;99.2372207642
874.0000000000;99.2793426514
874.5000000000;99.2699890137
875.0000000000;99.2770767212
875.5000000000;99.3218841553
876.0000000000;99.3128662109
876.5000000000;99.2798233032
877.0000000000;99.2862167358
877.5000000000;99.3328094482
878.0000000000;99.3677520752
878.5000000000;99.3335037231
879.0000000000;99.2612915039
879.5000000000;99.2311172485
880.0000000000;99.3172225952
880.5000000000;99.3851013184
881.0000000000;99.3627777100
881.5000000000;99.3905029297
882.0000000000;99.4308547974
882.5000000000;99.4044113159
883.0000000000;99.3972549438
883.5000000000;99.4171752930
884.0000000000;99.4128417969
884.5000000000;99.4331665039
885.0000000000;99.4718246460
885.5000000000;99.4453659058
886.0000000000;99.4304962158
886.5000000000;99.4805984497
887.0000000000;99.4905395508
887.5000000000;99.4522857666
888.0000000000;99.4232940674
888.5000000000;99.4416809082
889.0000000000;99.4712295532
889.5000000000;99.4414520264
890.0000000000;99.4291992188
890.5000000000;99.4711914063
891.0000000000;99.4968414307
891.5000000000;99.4877853394
892.0000000000;99.4702758789
892.5000000000;99.4984664917
893.0000000000;99.5413970947
893.5000000000;99.5372543335
894.0000000000;99.5216522217
894.5000000000;99.5250549316
895.0000000000;99.5473556519
895.5000000000;99.5603561401
896.0000000000;99.5623550415
896.5000000000;99.5948410034
897.0000000000;99.6279907227
897.5000000000;99.6192932129
898.0000000000;99.5839004517
898.5000000000;99.5681304932
899.0000000000;99.6017761230
899.5000000000;99.6057815552
900.0000000000;99.5994949341
900.5000000000;99.6922225952
901.0000000000;99.7612838745
901.5000000000;99.7208938599
902.0000000000;99.6658706665
902.5000000000;99.6624374390
903.0000000000;99.7122421265
903.5000000000;99.7205657959
904.0000000000;99.6879043579
904.5000000000;99.6833496094
905.0000000000;99.7186203003
905.5000000000;99.7622909546
906.0000000000;99.7631149292
906.5000000000;99.7536621094
907.0000000000;99.7729873657
907.5000000000;99.8175582886
908.0000000000;99.8512268066
908.5000000000;99.8428344727
909.0000000000;99.8108444214
909.5000000000;99.8138046265
910.0000000000;99.8885192871
910.5000000000;99.9076080322
911.0000000000;99.8550033569
911.5000000000;99.8534393311
912.0000000000;99.8822250366
912.5000000000;99.9015808105
913.0000000000;99.9235839844
913.5000000000;99.9344482422
914.0000000000;99.9280242920
914.5000000000;99.9490661621
915.0000000000;99.9604110718
915.5000000000;99.9072189331
916.0000000000;99.9021987915
916.5000000000;99.9536361694
917.0000000000;99.9492034912
917.5000000000;99.9539413452
918.0000000000;100.0171737671
918.5000000000;100.0722732544
919.0000000000;100.1004943848
919.5000000000;100.1176986694
920.0000000000;100.1489639282
920.5000000000;100.1763458252
921.0000000000;100.1682968140
921.5000000000;100.1553344727
922.0000000000;100.1608352661
922.5000000000;100.1829605103
923.0000000000;100.2007598877
923.5000000000;100.2116165161
924.0000000000;100.2410354614
924.5000000000;100.2629013062
925.0000000000;100.2517089844
925.5000000000;100.2367782593
926.0000000000;100.2559661865
926.5000000000;100.3102416992
927.0000000000;100.2912063599
927.5000000000;100.2461547852
928.0000000000;100.3208847046
928.5000000000;100.3455886841
929.0000000000;100.2768859863
929.5000000000;100.3273162842
930.0000000000;100.4295043945
930.5000000000;100.4615554810
931.0000000000;100.4400405884
931.5000000000;100.4016265869
932.0000000000;100.3862380981
932.5000000000;100.4302062988
933.0000000000;100.4907531738
933.5000000000;100.4927978516
934.0000000000;100.5039367676
934.5000000000;100.5400695801
935.0000000000;100.5301666260
935.5000000000;100.5109252930
936.0000000000;100.5501556396
936.5000000000;100.6763458252
937.0000000000;100.7365570068
937.5000000000;100.6278533936
938.0000000000;100.5718688965
938.5000000000;100.6151351929
939.0000000000;100.6655654907
939.5000000000;100.7152938843
940.0000000000;100.7556838989
940.5000000000;100.7666015625
941.0000000000;100.7700119019
941.5000000000;100.7689208984
942.0000000000;100.7379074097
942.5000000000;100.7765502930
943.0000000000;100.9049530029
943.5000000000;100.9010391235
944.0000000000;100.8347396851
944.5000000000;100.8840637207
945.0000000000;100.9726562500
945.5000000000;101.0320892334
946.0000000000;101.0547332764
946.5000000000;101.0922851563
947.0000000000;101.1407394409
947.5000000000;101.1321411133
948.0000000000;101.1139907837
948.5000000000;101.1414031982
949.0000000000;101.2037734985
949.5000000000;101.2261276245
950.0000000000;101.1726684570
950.5000000000;101.1548004150
951.0000000000;101.1954498291
951.5000000000;101.2461624146
952.0000000000;101.2794723511
952.5000000000;101.3254623413
953.0000000000;101.4320602417
953.5000000000;101.5003204346
954.0000000000;101.4953002930
954.5000000000;101.5097198486
955.0000000000;101.5638885498
955.5000000000;101.6298522949
956.0000000000;101.6593856812
956.5000000000;101.6665420532
957.0000000000;101.6876907349
957.5000000000;101.7285079956
958.0000000000;101.8066329956
958.5000000000;101.9196929932
959.0000000000;101.9607772827
959.5000000000;101.8822097778
960.0000000000;101.7505798340
960.5000000000;101.7787246704
961.0000000000;101.9848937988
961.5000000000;102.0973434448
962.0000000000;102.0256652832
962.5000000000;101.8932113647
963.0000000000;102.0013580322
963.5000000000;102.1599655151
964.0000000000;102.1131134033
964.5000000000;102.1127395630
965.0000000000;102.1580047607
965.5000000000;102.1104278564
966.0000000000;102.1718215942
966.5000000000;102.2767868042
967.0000000000;102.1469802856
967.5000000000;102.0615310669
968.0000000000;102.1469650269
968.5000000000;102.1611633301
969.0000000000;102.1517868042
969.5000000000;102.2077102661
970.0000000000;102.2677841187
970.5000000000;102.2341842651
971.0000000000;102.1102066040
971.5000000000;102.1386795044
972.0000000000;102.2692947388
972.5000000000;102.3083267212
973.0000000000;102.3417892456
973.5000000000;102.3841705322
974.0000000000;102.3729324341
974.5000000000;102.4228057861
975.0000000000;102.5256881714
975.5000000000;102.5130615234
976.0000000000;102.5142135620
976.5000000000;102.6120529175
977.0000000000;102.6380157471
977.5000000000;102.4837112427
978.0000000000;102.2389221191
978.5000000000;102.2746505737
979.0000000000;102.4688796997
979.5000000000;102.5033721924
980.0000000000;102.4745407104
980.5000000000;102.4872131348
981.0000000000;102.5383300781
981.5000000000;102.4396362305
982.0000000000;102.3097152710
982.5000000000;102.4992675781
983.0000000000;102.6106262207
983.5000000000;102.4872436523
984.0000000000;102.5765457153
984.5000000000;102.7489624023
985.0000000000;102.7698135376
985.5000000000;102.7116622925
986.0000000000;102.6613006592
986.5000000000;102.6940765381
987.0000000000;102.8646163940
987.5000000000;102.9469985962
988.0000000000;102.7489700317
988.5000000000;102.7889633179
989.0000000000;103.0081405640
989.5000000000;102.8902587891
990.0000000000;102.8074798584
990.5000000000;102.9101791382
991.0000000000;102.8864135742
991.5000000000;102.8720245361
992.0000000000;102.9909439087
992.5000000000;103.0951309204
993.0000000000;103.0178146362
993.5000000000;102.7972793579
994.0000000000;102.8110427856
994.5000000000;102.8934326172
995.0000000000;102.7803649902
995.5000000000;102.7947616577
996.0000000000;102.8606109619
996.5000000000;102.7232360840
997.0000000000;102.7239456177
997.5000000000;102.9352035522
998.0000000000;103.1018524170
998.5000000000;103.1454315186
999.0000000000;103.0916671753
999.5000000000;103.0286712646
1000.0000000000;103.0300979614
1000.5000000000;103.0901107788
1001.0000000000;103.1114807129
1001.5000000000;103.1396331787
1002.0000000000;103.1925277710
1002.5000000000;103.1402206421
1003.0000000000;103.1812973022
1003.5000000000;103.4656295776
1004.0000000000;103.5711212158
1004.5000000000;103.3890075684
1005.0000000000;103.1385803223
1005.5000000000;103.1333847046
1006.0000000000;103.2919006348
1006.5000000000;103.2709197998
1007.0000000000;103.1611709595
1007.5000000000;103.1385879517
1008.0000000000;103.2953033447
1008.5000000000;103.4410476685
1009.0000000000;103.3872146606
1009.5000000000;103.1297531128
1010.0000000000;103.0538177490
1010.5000000000;103.3562316895
1011.0000000000;103.6567001343
1011.5000000000;103.6675796509
1012.0000000000;103.4003677368
1012.5000000000;103.3042221069
1013.0000000000;103.5277557373
1013.5000000000;103.8417968750
1014.0000000000;103.6781311035
1014.5000000000;103.3238220215
1015.0000000000;103.4657592773
1015.5000000000;103.7433853149
1016.0000000000;103.8821945190
1016.5000000000;103.9287719727
1017.0000000000;103.9808502197
1017.5000000000;103.9777984619
1018.0000000000;103.7251129150
1018.5000000000;103.3801422119
1019.0000000000;103.2172088623
1019.5000000000;103.4467697144
