182.5000000000;11.3169212341
183.0000000000;10.4786386490
183.5000000000;9.5047082901
184.0000000000;8.8508214951
184.5000000000;9.2845764160
185.0000000000;8.8063554764
185.5000000000;6.4050846100
186.0000000000;4.8026914597
186.5000000000;3.4113147259
187.0000000000;1.7668993473
187.5000000000;1.0998402834
188.0000000000;0.9104696512
188.5000000000;0.6811580658
189.0000000000;0.4406223893
189.5000000000;0.3206417561
190.0000000000;0.2708588839
190.5000000000;0.2575358152
191.0000000000;0.2275443971
191.5000000000;0.1657267213
192.0000000000;0.1381925344
192.5000000000;0.1561058611
193.0000000000;0.1769337207
193.5000000000;0.1730216891
194.0000000000;0.1482322812
194.5000000000;0.1258849800
195.0000000000;0.1210764796
195.5000000000;0.1206775978
196.0000000000;0.1187477782
196.5000000000;0.1185807511
197.0000000000;0.1195861995
197.5000000000;0.1181867793
198.0000000000;0.1071316898
198.5000000000;0.0901867971
199.0000000000;0.0822007433
199.5000000000;0.0822961479
200.0000000000;0.0823333859
200.5000000000;0.0783812627
201.0000000000;0.0703786537
201.5000000000;0.0624432489
202.0000000000;0.0592156351
202.5000000000;0.0630220920
203.0000000000;0.0613326654
203.5000000000;0.0479625463
204.0000000000;0.0448572934
204.5000000000;0.0556249991
205.0000000000;0.0591865778
205.5000000000;0.0560544692
206.0000000000;0.0571282879
206.5000000000;0.0607065819
207.0000000000;0.0628888234
207.5000000000;0.0621498860
208.0000000000;0.0605101734
208.5000000000;0.0620965138
209.0000000000;0.0659175366
209.5000000000;0.0689792410
210.0000000000;0.0686944202
210.5000000000;0.0683531463
211.0000000000;0.0757196471
211.5000000000;0.0809886456
212.0000000000;0.0721322969
212.5000000000;0.0601216704
213.0000000000;0.0568691008
213.5000000000;0.0666915700
214.0000000000;0.0730655715
214.5000000000;0.0569659993
215.0000000000;0.0461384468
215.5000000000;0.0577835664
216.0000000000;0.0663162544
216.5000000000;0.0624352954
217.0000000000;0.0546304323
217.5000000000;0.0503875725
218.0000000000;0.0521602593
218.5000000000;0.0519530699
219.0000000000;0.0480573513
219.5000000000;0.0469389223
220.0000000000;0.0480562449
220.5000000000;0.0482072793
221.0000000000;0.0490961485
221.5000000000;0.0498691387
222.0000000000;0.0440897048
222.5000000000;0.0372788794
223.0000000000;0.0415778384
223.5000000000;0.0476756431
224.0000000000;0.0454043113
224.5000000000;0.0431082696
225.0000000000;0.0457478389
225.5000000000;0.0503207855
226.0000000000;0.0495363884
226.5000000000;0.0400245674
227.0000000000;0.0407362729
227.5000000000;0.0560619198
228.0000000000;0.0600740276
228.5000000000;0.0535768531
229.0000000000;0.0552116074
229.5000000000;0.0613658391
230.0000000000;0.0641057044
230.5000000000;0.0622888021
231.0000000000;0.0606450923
231.5000000000;0.0662352666
232.0000000000;0.0694579929
232.5000000000;0.0619061068
233.0000000000;0.0580867343
233.5000000000;0.0635225922
234.0000000000;0.0683543086
234.5000000000;0.0685708374
235.0000000000;0.0649633035
235.5000000000;0.0618164539
236.0000000000;0.0607295483
236.5000000000;0.0580840558
237.0000000000;0.0543944016
237.5000000000;0.0531512760
238.0000000000;0.0559288748
238.5000000000;0.0609042980
239.0000000000;0.0607580282
239.5000000000;0.0558262952
240.0000000000;0.0534543730
240.5000000000;0.0539366528
241.0000000000;0.0545773134
241.5000000000;0.0534299612
242.0000000000;0.0512824282
242.5000000000;0.0518475920
243.0000000000;0.0542647503
243.5000000000;0.0552997589
244.0000000000;0.0538818724
244.5000000000;0.0513148122
245.0000000000;0.0518187657
245.5000000000;0.0533606373
246.0000000000;0.0500198044
246.5000000000;0.0466607548
247.0000000000;0.0488087349
247.5000000000;0.0524890199
248.0000000000;0.0545665286
248.5000000000;0.0549306236
249.0000000000;0.0553278141
249.5000000000;0.0575848222
250.0000000000;0.0601297915
250.5000000000;0.0624825805
251.0000000000;0.0669361800
251.5000000000;0.0707461163
252.0000000000;0.0693099424
252.5000000000;0.0694709644
253.0000000000;0.0745068491
253.5000000000;0.0722340941
254.0000000000;0.0662650838
254.5000000000;0.0739035383
255.0000000000;0.0832947865
255.5000000000;0.0797919258
256.0000000000;0.0786801130
256.5000000000;0.0854284838
257.0000000000;0.0875757784
257.5000000000;0.0872529075
258.0000000000;0.0920294449
258.5000000000;0.0959466174
259.0000000000;0.0959962532
259.5000000000;0.0986862183
260.0000000000;0.1029503495
260.5000000000;0.1036467329
261.0000000000;0.1062521264
261.5000000000;0.1156922281
262.0000000000;0.1287997514
262.5000000000;0.1437783092
263.0000000000;0.1604670733
263.5000000000;0.1746563613
264.0000000000;0.1858904511
264.5000000000;0.2080355883
265.0000000000;0.2471757382
265.5000000000;0.2966282666
266.0000000000;0.3437943757
266.5000000000;0.3779881299
267.0000000000;0.4041262567
267.5000000000;0.4306867123
268.0000000000;0.4655901790
268.5000000000;0.5067132115
269.0000000000;0.5448851585
269.5000000000;0.5707653165
270.0000000000;0.5881047845
270.5000000000;0.6249122620
271.0000000000;0.6778276563
271.5000000000;0.7185255289
272.0000000000;0.7566624880
272.5000000000;0.8087282181
273.0000000000;0.8676726818
273.5000000000;0.9278373122
274.0000000000;0.9899920225
274.5000000000;1.0578615665
275.0000000000;1.1356489658
275.5000000000;1.2244470119
276.0000000000;1.3212417364
276.5000000000;1.4175246954
277.0000000000;1.5112329721
277.5000000000;1.6060645580
278.0000000000;1.7072240114
278.5000000000;1.8138014078
279.0000000000;1.9114570618
279.5000000000;2.0010747910
280.0000000000;2.0987977982
280.5000000000;2.2074689865
281.0000000000;2.3243749142
281.5000000000;2.4477200508
282.0000000000;2.5766034126
282.5000000000;2.7114198208
283.0000000000;2.8544068336
283.5000000000;3.0080881119
284.0000000000;3.1698200703
284.5000000000;3.3365585804
285.0000000000;3.5088665485
285.5000000000;3.6886572838
286.0000000000;3.8737316132
286.5000000000;4.0467362404
287.0000000000;4.2049946785
287.5000000000;4.3836178780
288.0000000000;4.5704889297
288.5000000000;4.7150454521
289.0000000000;4.8424525261
289.5000000000;4.9887309074
290.0000000000;5.1354818344
290.5000000000;5.2704305649
291.0000000000;5.3964405060
291.5000000000;5.5082030296
292.0000000000;5.6026215553
292.5000000000;5.6975350380
293.0000000000;5.7942681313
293.5000000000;5.8667178154
294.0000000000;5.9261341095
294.5000000000;5.9993467331
295.0000000000;6.0706367493
295.5000000000;6.1254882813
296.0000000000;6.1707191467
296.5000000000;6.2066435814
297.0000000000;6.2302703857
297.5000000000;6.2596826553
298.0000000000;6.2998919487
298.5000000000;6.3117814064
299.0000000000;6.2962374687
299.5000000000;6.2933483124
300.0000000000;6.2952418327
300.5000000000;6.2816209793
301.0000000000;6.2599539757
301.5000000000;6.2343144417
302.0000000000;6.1992082596
302.5000000000;6.1601471901
303.0000000000;6.1255421638
303.5000000000;6.0903296471
304.0000000000;6.0480365753
304.5000000000;5.9955172539
305.0000000000;5.9371275902
305.5000000000;5.8794322014
306.0000000000;5.8163585663
306.5000000000;5.7473287582
307.0000000000;5.6886043549
307.5000000000;5.6316123009
308.0000000000;5.5510649681
308.5000000000;5.4672975540
309.0000000000;5.4022545815
309.5000000000;5.3359684944
310.0000000000;5.2608408928
310.5000000000;5.1889309883
311.0000000000;5.1165571213
311.5000000000;5.0361757278
312.0000000000;4.9556326866
312.5000000000;4.8795218468
313.0000000000;4.8030371666
313.5000000000;4.7277045250
314.0000000000;4.6575326920
314.5000000000;4.5864067078
315.0000000000;4.5113129616
315.5000000000;4.4398121834
316.0000000000;4.3764691353
316.5000000000;4.3205394745
317.0000000000;4.2602429390
317.5000000000;4.1889438629
318.0000000000;4.1215848923
318.5000000000;4.0621109009
319.0000000000;4.0013589859
319.5000000000;3.9453241825
320.0000000000;3.9014430046
320.5000000000;3.8591303825
321.0000000000;3.8104643822
321.5000000000;3.7562446594
322.0000000000;3.7049019337
322.5000000000;3.6641566753
323.0000000000;3.6229820251
323.5000000000;3.5748157501
324.0000000000;3.5277786255
324.5000000000;3.4931840897
325.0000000000;3.4761269093
325.5000000000;3.4441795349
326.0000000000;3.3832311630
326.5000000000;3.3368790150
327.0000000000;3.3140807152
327.5000000000;3.2910354137
328.0000000000;3.2690286636
328.5000000000;3.2502980232
329.0000000000;3.2158274651
329.5000000000;3.1719691753
330.0000000000;3.1510014534
330.5000000000;3.1444919109
331.0000000000;3.1285405159
331.5000000000;3.0938925743
332.0000000000;3.0529513359
332.5000000000;3.0379910469
333.0000000000;3.0343525410
333.5000000000;3.0133523941
334.0000000000;2.9983954430
334.5000000000;2.9906966686
335.0000000000;2.9435293674
335.5000000000;2.8889441490
336.0000000000;2.8907337189
336.5000000000;2.8864662647
337.0000000000;2.8332052231
337.5000000000;2.7931232452
338.0000000000;2.7857170105
338.5000000000;2.7862148285
339.0000000000;2.7754826546
339.5000000000;2.7442219257
340.0000000000;2.7003285885
340.5000000000;2.6577479839
341.0000000000;2.6317553520
341.5000000000;2.6222293377
342.0000000000;2.6189095974
342.5000000000;2.6025564671
343.0000000000;2.5675826073
343.5000000000;2.5263454914
344.0000000000;2.4913058281
344.5000000000;2.4684927464
345.0000000000;2.4420185089
345.5000000000;2.4083664417
346.0000000000;2.3863317966
346.5000000000;2.3674206734
347.0000000000;2.3324553967
347.5000000000;2.2951614857
348.0000000000;2.2650048733
348.5000000000;2.2293372154
349.0000000000;2.1843116283
349.5000000000;2.1363878250
350.0000000000;2.1006915569
350.5000000000;2.0818114281
351.0000000000;2.0579297543
351.5000000000;2.0210149288
352.0000000000;1.9793968201
352.5000000000;1.9473145008
353.0000000000;1.9281206131
353.5000000000;1.8937619925
354.0000000000;1.8383851051
354.5000000000;1.7836387157
355.0000000000;1.7372366190
355.5000000000;1.7004910707
356.0000000000;1.6775009632
356.5000000000;1.6562335491
357.0000000000;1.6084141731
357.5000000000;1.5575908422
358.0000000000;1.5378681421
358.5000000000;1.5102999210
359.0000000000;1.4595601559
359.5000000000;1.4404214621
360.0000000000;1.4259955883
360.5000000000;1.3563437462
361.0000000000;1.2829767466
361.5000000000;1.2340223789
362.0000000000;1.2199705839
362.5000000000;1.2147037983
363.0000000000;1.1664218903
363.5000000000;1.1029087305
364.0000000000;1.0667161942
364.5000000000;1.0657418966
365.0000000000;1.0644035339
365.5000000000;1.0074951649
366.0000000000;0.9537864923
366.5000000000;0.9596047401
367.0000000000;0.9463053942
367.5000000000;0.8897126317
368.0000000000;0.8447556496
368.5000000000;0.8230414987
369.0000000000;0.8117893934
369.5000000000;0.7964330316
370.0000000000;0.7706547976
370.5000000000;0.7406713963
371.0000000000;0.7191380262
371.5000000000;0.7137367129
372.0000000000;0.7008509040
372.5000000000;0.6706271172
373.0000000000;0.6456562877
373.5000000000;0.6324349642
374.0000000000;0.6225038171
374.5000000000;0.5997862816
375.0000000000;0.5679306984
375.5000000000;0.5665866733
376.0000000000;0.5765745044
376.5000000000;0.5451586843
377.0000000000;0.5111903548
377.5000000000;0.5120053887
378.0000000000;0.5134203434
378.5000000000;0.4992775917
379.0000000000;0.4790802300
379.5000000000;0.4656678736
380.0000000000;0.4652993977
380.5000000000;0.4674205184
381.0000000000;0.4624954760
381.5000000000;0.4462532997
382.0000000000;0.4243730307
382.5000000000;0.4095714986
383.0000000000;0.4171023071
383.5000000000;0.4310258925
384.0000000000;0.4044058919
384.5000000000;0.3769518137
385.0000000000;0.3998523355
385.5000000000;0.4013164937
386.0000000000;0.3570126295
386.5000000000;0.3404129148
387.0000000000;0.3646532595
387.5000000000;0.3963387907
388.0000000000;0.3847590685
388.5000000000;0.3417361677
389.0000000000;0.3748510480
389.5000000000;0.4385147691
390.0000000000;0.4059939384
390.5000000000;0.3622235358
391.0000000000;0.3817889392
391.5000000000;0.3990687728
392.0000000000;0.3885020912
392.5000000000;0.3710691929
393.0000000000;0.3786419332
393.5000000000;0.4101893902
394.0000000000;0.3939701021
394.5000000000;0.3503431976
395.0000000000;0.3684069514
395.5000000000;0.4019305408
396.0000000000;0.3908261061
396.5000000000;0.3745170236
397.0000000000;0.3794480562
397.5000000000;0.3986818492
398.0000000000;0.4014229178
398.5000000000;0.3750840724
399.0000000000;0.3776710033
399.5000000000;0.4082891941
400.0000000000;0.3968264759
400.5000000000;0.3754002750
401.0000000000;0.3977789581
401.5000000000;0.4094885290
402.0000000000;0.3950560391
402.5000000000;0.4103310406
403.0000000000;0.4376922250
403.5000000000;0.4335283339
404.0000000000;0.4170965850
404.5000000000;0.4137798250
405.0000000000;0.4344308078
405.5000000000;0.4629799128
406.0000000000;0.4742488861
406.5000000000;0.4668319821
407.0000000000;0.4551196992
407.5000000000;0.4688000083
408.0000000000;0.4970026314
408.5000000000;0.5068703890
409.0000000000;0.5131191015
409.5000000000;0.5309659243
410.0000000000;0.5507961512
410.5000000000;0.5654316545
411.0000000000;0.5746327043
411.5000000000;0.5910935998
412.0000000000;0.6198422313
412.5000000000;0.6430725455
413.0000000000;0.6491916180
413.5000000000;0.6416957974
414.0000000000;0.6681616902
414.5000000000;0.7488982081
415.0000000000;0.7992554903
415.5000000000;0.7999122143
416.0000000000;0.8074815869
416.5000000000;0.8478629589
417.0000000000;0.9140248299
417.5000000000;0.9545235038
418.0000000000;0.9721309543
418.5000000000;1.0224475861
419.0000000000;1.0829029083
419.5000000000;1.1153476238
420.0000000000;1.1530586481
420.5000000000;1.2122948170
421.0000000000;1.2745589018
421.5000000000;1.3321739435
422.0000000000;1.3888646364
422.5000000000;1.4548627138
423.0000000000;1.5294919014
423.5000000000;1.6015346050
424.0000000000;1.6719855070
424.5000000000;1.7517489195
425.0000000000;1.8495212793
425.5000000000;1.9566223621
426.0000000000;2.0603578091
426.5000000000;2.1632523537
427.0000000000;2.2605783939
427.5000000000;2.3454890251
428.0000000000;2.4340763092
428.5000000000;2.5548222065
429.0000000000;2.7020058632
429.5000000000;2.8410682678
430.0000000000;2.9647932053
430.5000000000;3.0877661705
431.0000000000;3.2269034386
431.5000000000;3.3839685917
432.0000000000;3.5496346951
432.5000000000;3.7227926254
433.0000000000;3.9022345543
433.5000000000;4.0738229752
434.0000000000;4.2335882187
434.5000000000;4.4127621651
435.0000000000;4.6132459641
435.5000000000;4.8081760406
436.0000000000;5.0162286758
436.5000000000;5.2361435890
437.0000000000;5.4393644333
437.5000000000;5.6434192657
438.0000000000;5.8687472343
438.5000000000;6.1096334457
439.0000000000;6.3612747192
439.5000000000;6.6203107834
440.0000000000;6.8703770638
440.5000000000;7.1061444283
441.0000000000;7.3521289825
441.5000000000;7.6056494713
442.0000000000;7.8843336105
442.5000000000;8.1849012375
443.0000000000;8.4678325653
443.5000000000;8.7498264313
444.0000000000;9.0448846817
444.5000000000;9.3497638702
445.0000000000;9.6563920975
445.5000000000;9.9613275528
446.0000000000;10.2765636444
446.5000000000;10.5995330811
447.0000000000;10.9205598831
447.5000000000;11.2534885406
448.0000000000;11.6045103073
448.5000000000;11.9566345215
449.0000000000;12.2995920181
449.5000000000;12.6361122131
450.0000000000;12.9800872803
450.5000000000;13.3444156647
451.0000000000;13.7233324051
451.5000000000;14.1047182083
452.0000000000;14.4785022736
452.5000000000;14.8468379974
453.0000000000;15.2206535339
453.5000000000;15.6081914902
454.0000000000;16.0060157776
454.5000000000;16.3999595642
455.0000000000;16.7895050049
455.5000000000;17.1818943024
456.0000000000;17.5767345428
456.5000000000;17.9760017395
457.0000000000;18.3821735382
457.5000000000;18.7894153595
458.0000000000;19.1927471161
458.5000000000;19.5976619720
459.0000000000;20.0242614746
459.5000000000;20.4738368988
460.0000000000;20.9188213348
460.5000000000;21.3454990387
461.0000000000;21.7947597504
461.5000000000;22.2646083832
462.0000000000;22.7076129913
462.5000000000;23.1340885162
463.0000000000;23.5537528992
463.5000000000;23.9792270660
464.0000000000;24.4355678558
464.5000000000;24.8836021423
465.0000000000;25.3233242035
465.5000000000;25.7997570038
466.0000000000;26.2732582092
466.5000000000;26.7155761719
467.0000000000;27.1833648682
467.5000000000;27.6748409271
468.0000000000;28.1454448700
468.5000000000;28.6042461395
469.0000000000;29.0837268829
469.5000000000;29.5823707581
470.0000000000;30.0801963806
470.5000000000;30.5619907379
471.0000000000;31.0233192444
471.5000000000;31.4748878479
472.0000000000;31.9375476837
472.5000000000;32.4082870483
473.0000000000;32.8671073914
473.5000000000;33.3270759583
474.0000000000;33.8169822693
474.5000000000;34.3148765564
475.0000000000;34.7885856628
475.5000000000;35.2426452637
476.0000000000;35.7019882202
476.5000000000;36.1802978516
477.0000000000;36.6617965698
477.5000000000;37.1432991028
478.0000000000;37.6217575073
478.5000000000;38.0810546875
479.0000000000;38.5352020264
479.5000000000;39.0003852844
480.0000000000;39.4622573853
480.5000000000;39.9190444946
481.0000000000;40.3758239746
481.5000000000;40.8321952820
482.0000000000;41.2927284241
482.5000000000;41.7479743958
483.0000000000;42.1824264526
483.5000000000;42.6198539734
484.0000000000;43.0496902466
484.5000000000;43.4035530090
485.0000000000;43.8361892700
485.5000000000;44.4178771973
486.0000000000;44.7791786194
486.5000000000;44.9500846863
487.0000000000;45.3392753601
487.5000000000;45.9828758240
488.0000000000;46.4911689758
488.5000000000;46.8740348816
489.0000000000;47.2869606018
489.5000000000;47.7001495361
490.0000000000;48.0875091553
490.5000000000;48.4744453430
491.0000000000;48.8782424927
491.5000000000;49.2934722900
492.0000000000;49.6925010681
492.5000000000;50.0595245361
493.0000000000;50.4039077759
493.5000000000;50.7638893127
494.0000000000;51.1729507446
494.5000000000;51.5993728638
495.0000000000;51.9989662170
495.5000000000;52.3510208130
496.0000000000;52.6848945618
496.5000000000;53.0238952637
497.0000000000;53.3636970520
497.5000000000;53.7130775452
498.0000000000;54.0630989075
498.5000000000;54.3843193054
499.0000000000;54.6814155579
499.5000000000;55.0127487183
500.0000000000;55.3731384277
500.5000000000;55.6957054138
501.0000000000;55.9832458496
501.5000000000;56.2683181763
502.0000000000;56.5918006897
502.5000000000;56.9367027283
503.0000000000;57.2319259644
503.5000000000;57.5113410950
504.0000000000;57.8202972412
504.5000000000;58.1264839172
505.0000000000;58.4105949402
505.5000000000;58.6803054810
506.0000000000;58.9594039917
506.5000000000;59.2570762634
507.0000000000;59.5398406982
507.5000000000;59.7993621826
508.0000000000;60.0470962524
508.5000000000;60.3055915833
509.0000000000;60.5893211365
509.5000000000;60.8631439209
510.0000000000;61.1078872681
510.5000000000;61.3353691101
511.0000000000;61.5721206665
511.5000000000;61.8261947632
512.0000000000;62.0690574646
512.5000000000;62.2998123169
513.0000000000;62.5366401672
513.5000000000;62.7931022644
514.0000000000;63.0609550476
514.5000000000;63.2927894592
515.0000000000;63.5025405884
515.5000000000;63.7384185791
516.0000000000;63.9731063843
516.5000000000;64.1859588623
517.0000000000;64.4009933472
517.5000000000;64.6201324463
518.0000000000;64.8308639526
518.5000000000;65.0358581543
519.0000000000;65.2404403687
519.5000000000;65.4485092163
520.0000000000;65.6615142822
520.5000000000;65.8770141602
521.0000000000;66.0791778564
521.5000000000;66.2651367188
522.0000000000;66.4650115967
522.5000000000;66.6774291992
523.0000000000;66.8780441284
523.5000000000;67.0687866211
524.0000000000;67.2583312988
524.5000000000;67.4492340088
525.0000000000;67.6342849731
525.5000000000;67.8053970337
526.0000000000;67.9714889526
526.5000000000;68.1417160034
527.0000000000;68.3189773560
527.5000000000;68.4973754883
528.0000000000;68.6688919067
528.5000000000;68.8398284912
529.0000000000;69.0125198364
529.5000000000;69.1812744141
530.0000000000;69.3442764282
530.5000000000;69.5047531128
531.0000000000;69.6774902344
531.5000000000;69.8573532104
532.0000000000;70.0129165649
532.5000000000;70.1557769775
533.0000000000;70.3103790283
533.5000000000;70.4623718262
534.0000000000;70.6056671143
534.5000000000;70.7524337769
535.0000000000;70.9031982422
535.5000000000;71.0549545288
536.0000000000;71.2171249390
536.5000000000;71.3839797974
537.0000000000;71.5295104980
537.5000000000;71.6628570557
538.0000000000;71.8024978638
538.5000000000;71.9395446777
539.0000000000;72.0745620728
539.5000000000;72.2207412720
540.0000000000;72.3691329956
540.5000000000;72.5083312988
541.0000000000;72.6511535645
541.5000000000;72.7969207764
542.0000000000;72.9280014038
542.5000000000;73.0531234741
543.0000000000;73.1889190674
543.5000000000;73.3315429688
544.0000000000;73.4731216431
544.5000000000;73.6107940674
545.0000000000;73.7463912964
545.5000000000;73.8802566528
546.0000000000;74.0056076050
546.5000000000;74.1289291382
547.0000000000;74.2651443481
547.5000000000;74.3922576904
548.0000000000;74.4952163696
548.5000000000;74.6034317017
549.0000000000;74.7362823486
549.5000000000;74.8905487061
550.0000000000;75.0310745239
550.5000000000;75.1440200806
551.0000000000;75.2720947266
551.5000000000;75.4107360840
552.0000000000;75.5223922729
552.5000000000;75.6311340332
553.0000000000;75.7587203979
553.5000000000;75.8819046021
554.0000000000;75.9919357300
554.5000000000;76.0987472534
555.0000000000;76.2119216919
555.5000000000;76.3330383301
556.0000000000;76.4566116333
556.5000000000;76.5765151978
557.0000000000;76.6881332397
557.5000000000;76.7995300293
558.0000000000;76.9141845703
558.5000000000;77.0260314941
559.0000000000;77.1417541504
559.5000000000;77.2659454346
560.0000000000;77.3742752075
560.5000000000;77.4655914307
561.0000000000;77.5734939575
561.5000000000;77.6888961792
562.0000000000;77.7907257080
562.5000000000;77.9043350220
563.0000000000;78.0334243774
563.5000000000;78.1465225220
564.0000000000;78.2483749390
564.5000000000;78.3548278809
565.0000000000;78.4589843750
565.5000000000;78.5600128174
566.0000000000;78.6658706665
566.5000000000;78.7712173462
567.0000000000;78.8657760620
567.5000000000;78.9478683472
568.0000000000;79.0098571777
568.5000000000;79.0362167358
569.0000000000;79.0568618774
569.5000000000;79.1072158813
570.0000000000;79.1874618530
570.5000000000;79.3013305664
571.0000000000;79.4349746704
571.5000000000;79.4975967407
572.0000000000;79.4881057739
572.5000000000;79.5664672852
573.0000000000;79.7114562988
573.5000000000;79.8054428101
574.0000000000;79.8556060791
574.5000000000;79.8964309692
575.0000000000;79.9394531250
575.5000000000;80.0129241943
576.0000000000;80.1532516479
576.5000000000;80.3667755127
577.0000000000;80.5714492798
577.5000000000;80.5719985962
578.0000000000;80.5307922363
578.5000000000;80.7372055054
579.0000000000;81.0734329224
579.5000000000;81.3105468750
580.0000000000;81.2933120728
580.5000000000;81.1349182129
581.0000000000;81.0285949707
581.5000000000;80.9113540649
582.0000000000;80.8173217773
582.5000000000;80.9185562134
583.0000000000;81.1471786499
583.5000000000;81.2969436646
584.0000000000;81.3134613037
584.5000000000;81.2847213745
585.0000000000;81.3583068848
585.5000000000;81.4965133667
586.0000000000;81.6140213013
586.5000000000;81.7198333740
587.0000000000;81.8154907227
587.5000000000;81.8826446533
588.0000000000;81.9328994751
588.5000000000;81.9972000122
589.0000000000;82.1158218384
589.5000000000;82.2811355591
590.0000000000;82.4325180054
590.5000000000;82.5441513062
591.0000000000;82.6218719482
591.5000000000;82.6895904541
592.0000000000;82.7703323364
592.5000000000;82.8696670532
593.0000000000;82.9485549927
593.5000000000;83.0120391846
594.0000000000;83.1297912598
594.5000000000;83.2651062012
595.0000000000;83.3473663330
595.5000000000;83.4470748901
596.0000000000;83.6006393433
596.5000000000;83.7389678955
597.0000000000;83.8419952393
597.5000000000;83.9349060059
598.0000000000;84.0494079590
598.5000000000;84.1830978394
599.0000000000;84.2916107178
599.5000000000;84.3853530884
600.0000000000;84.4855194092
600.5000000000;84.5588531494
601.0000000000;84.6038436890
601.5000000000;84.6608200073
602.0000000000;84.7487792969
602.5000000000;84.8604431152
603.0000000000;84.9562911987
603.5000000000;85.0255355835
604.0000000000;85.0906066895
604.5000000000;85.1818237305
605.0000000000;85.2934799194
605.5000000000;85.3730239868
606.0000000000;85.4168472290
606.5000000000;85.4505081177
607.0000000000;85.4917449951
607.5000000000;85.5438156128
608.0000000000;85.5895004272
608.5000000000;85.6375732422
609.0000000000;85.6978759766
609.5000000000;85.7189788818
610.0000000000;85.7047271729
610.5000000000;85.7358551025
611.0000000000;85.7888031006
611.5000000000;85.8101882935
612.0000000000;85.8240432739
612.5000000000;85.8462829590
613.0000000000;85.8688659668
613.5000000000;85.8922958374
614.0000000000;85.9189300537
614.5000000000;85.9449920654
615.0000000000;85.9742965698
615.5000000000;86.0136489868
616.0000000000;86.0501327515
616.5000000000;86.0849304199
617.0000000000;86.1495895386
617.5000000000;86.2094879150
618.0000000000;86.2078094482
618.5000000000;86.1991500854
619.0000000000;86.2260513306
619.5000000000;86.2598190308
620.0000000000;86.2903671265
620.5000000000;86.3290328979
621.0000000000;86.3995208740
621.5000000000;86.4779434204
622.0000000000;86.4901428223
622.5000000000;86.4863662720
623.0000000000;86.5425949097
623.5000000000;86.6247634888
624.0000000000;86.6980361938
624.5000000000;86.7540740967
625.0000000000;86.8288726807
625.5000000000;86.9376983643
626.0000000000;87.0066223145
626.5000000000;87.0365142822
627.0000000000;87.0909805298
627.5000000000;87.1438598633
628.0000000000;87.1781082153
628.5000000000;87.2471923828
629.0000000000;87.3385238647
629.5000000000;87.4035339355
630.0000000000;87.4671401978
630.5000000000;87.5524978638
631.0000000000;87.6474456787
631.5000000000;87.7294387817
632.0000000000;87.7828979492
632.5000000000;87.8260498047
633.0000000000;87.8766098022
633.5000000000;87.9404830933
634.0000000000;88.0053024292
634.5000000000;88.0579452515
635.0000000000;88.1065444946
635.5000000000;88.1532440186
636.0000000000;88.1927261353
636.5000000000;88.2294616699
637.0000000000;88.2684326172
637.5000000000;88.3075332642
638.0000000000;88.3533020020
638.5000000000;88.4143447876
639.0000000000;88.4675140381
639.5000000000;88.4996719360
640.0000000000;88.5306472778
640.5000000000;88.5701751709
641.0000000000;88.6161651611
641.5000000000;88.6538314819
642.0000000000;88.6793746948
642.5000000000;88.7061538696
643.0000000000;88.7266540527
643.5000000000;88.7341232300
644.0000000000;88.7549362183
644.5000000000;88.7936477661
645.0000000000;88.8268814087
645.5000000000;88.8444671631
646.0000000000;88.8498001099
646.5000000000;88.8613204956
647.0000000000;88.8850326538
647.5000000000;88.9126281738
648.0000000000;88.9253387451
648.5000000000;88.9232254028
649.0000000000;88.9411087036
649.5000000000;88.9766540527
650.0000000000;89.0055160522
650.5000000000;89.0219650269
651.0000000000;89.0318756104
651.5000000000;89.0491638184
652.0000000000;89.0728759766
652.5000000000;89.0932693481
653.0000000000;89.1000137329
653.5000000000;89.1300354004
654.0000000000;89.2129058838
654.5000000000;89.0292205811
655.0000000000;88.5759658813
655.5000000000;88.8490066528
656.0000000000;88.9415588379
656.5000000000;88.2781600952
657.0000000000;87.5543441772
657.5000000000;88.6957778931
658.0000000000;89.5600128174
658.5000000000;89.4376220703
659.0000000000;89.4813995361
659.5000000000;89.6054306030
660.0000000000;89.6440734863
660.5000000000;89.7025833130
661.0000000000;89.7663116455
661.5000000000;89.7939071655
662.0000000000;89.8551635742
662.5000000000;89.9448928833
663.0000000000;89.9837341309
663.5000000000;90.0085525513
664.0000000000;90.0666503906
664.5000000000;90.1361312866
665.0000000000;90.2039337158
665.5000000000;90.2721939087
666.0000000000;90.3471603394
666.5000000000;90.4260635376
667.0000000000;90.4913482666
667.5000000000;90.5380859375
668.0000000000;90.5739593506
668.5000000000;90.6176834106
669.0000000000;90.6694335938
669.5000000000;90.7100143433
670.0000000000;90.7534484863
670.5000000000;90.8108139038
671.0000000000;90.8515396118
671.5000000000;90.8797454834
672.0000000000;90.9275360107
672.5000000000;90.9800949097
673.0000000000;91.0234222412
673.5000000000;91.0708236694
674.0000000000;91.1154556274
674.5000000000;91.1454315186
675.0000000000;91.1878662109
675.5000000000;91.2444534302
676.0000000000;91.2770690918
676.5000000000;91.3007278442
677.0000000000;91.3432846069
677.5000000000;91.3905868530
678.0000000000;91.4263381958
678.5000000000;91.4440841675
679.0000000000;91.4628372192
679.5000000000;91.4958038330
680.0000000000;91.5280532837
680.5000000000;91.5597000122
681.0000000000;91.5966110229
681.5000000000;91.6124343872
682.0000000000;91.6099243164
682.5000000000;91.6403503418
683.0000000000;91.6881790161
683.5000000000;91.7120742798
684.0000000000;91.7146530151
684.5000000000;91.7039184570
685.0000000000;91.6869277954
685.5000000000;91.6885528564
686.0000000000;91.7241439819
686.5000000000;91.7717132568
687.0000000000;91.8023757935
687.5000000000;91.7988128662
688.0000000000;91.8000717163
688.5000000000;91.8256225586
689.0000000000;91.8401031494
689.5000000000;91.8324279785
690.0000000000;91.8146591187
690.5000000000;91.8155975342
691.0000000000;91.8301239014
691.5000000000;91.8196105957
692.0000000000;91.8144836426
692.5000000000;91.8416061401
693.0000000000;91.8512573242
693.5000000000;91.8502502441
694.0000000000;91.8857727051
694.5000000000;91.9217529297
695.0000000000;91.9355010986
695.5000000000;91.9666900635
696.0000000000;92.0022125244
696.5000000000;92.0087356567
697.0000000000;92.0110702515
697.5000000000;92.0310592651
698.0000000000;92.0703277588
698.5000000000;92.1164779663
699.0000000000;92.1591491699
699.5000000000;92.2084197998
700.0000000000;92.2521514893
700.5000000000;92.2668533325
701.0000000000;92.2836914063
701.5000000000;92.3246459961
702.0000000000;92.3674621582
702.5000000000;92.3973541260
703.0000000000;92.4171905518
703.5000000000;92.4608383179
704.0000000000;92.5281143188
704.5000000000;92.5762634277
705.0000000000;92.6072463989
705.5000000000;92.6365661621
706.0000000000;92.6619338989
706.5000000000;92.6818161011
707.0000000000;92.7007598877
707.5000000000;92.7353973389
708.0000000000;92.7932205200
708.5000000000;92.8601226807
709.0000000000;92.9227905273
709.5000000000;92.9744567871
710.0000000000;93.0198822021
710.5000000000;93.0635528564
711.0000000000;93.1073608398
711.5000000000;93.1470870972
712.0000000000;93.1789550781
712.5000000000;93.2076034546
713.0000000000;93.2347488403
713.5000000000;93.2620239258
714.0000000000;93.3059616089
714.5000000000;93.3655395508
715.0000000000;93.4086151123
715.5000000000;93.4381561279
716.0000000000;93.4784698486
716.5000000000;93.5482711792
717.0000000000;93.6276626587
717.5000000000;93.6686859131
718.0000000000;93.7004013062
718.5000000000;93.7534408569
719.0000000000;93.8002319336
719.5000000000;93.8468627930
720.0000000000;93.9173278809
720.5000000000;93.9779510498
721.0000000000;94.0142517090
721.5000000000;94.0584106445
722.0000000000;94.1088333130
722.5000000000;94.1512680054
723.0000000000;94.1903839111
723.5000000000;94.2275009155
724.0000000000;94.2595520020
724.5000000000;94.2896041870
725.0000000000;94.3176269531
725.5000000000;94.3359069824
726.0000000000;94.3541793823
726.5000000000;94.3877944946
727.0000000000;94.4272994995
727.5000000000;94.4662933350
728.0000000000;94.5088958740
728.5000000000;94.5456619263
729.0000000000;94.5726470947
729.5000000000;94.6132812500
730.0000000000;94.6508712769
730.5000000000;94.6453170776
731.0000000000;94.6346282959
731.5000000000;94.6539382935
732.0000000000;94.6949615479
732.5000000000;94.7445602417
733.0000000000;94.7857742310
733.5000000000;94.7947006226
734.0000000000;94.7795028687
734.5000000000;94.7776031494
735.0000000000;94.7826385498
735.5000000000;94.7862091064
736.0000000000;94.8100509644
736.5000000000;94.8509597778
737.0000000000;94.8871383667
737.5000000000;94.9123611450
738.0000000000;94.9355850220
738.5000000000;94.9732513428
739.0000000000;94.9890136719
739.5000000000;94.9566802979
740.0000000000;94.9385681152
740.5000000000;94.9579544067
741.0000000000;94.9916000366
741.5000000000;95.0218276978
742.0000000000;95.0405807495
742.5000000000;95.0542144775
743.0000000000;95.0704803467
743.5000000000;95.0896911621
744.0000000000;95.0901718140
744.5000000000;95.0814208984
745.0000000000;95.1024017334
745.5000000000;95.1255798340
746.0000000000;95.1246948242
746.5000000000;95.1314697266
747.0000000000;95.1414260864
747.5000000000;95.1314926147
748.0000000000;95.1331481934
748.5000000000;95.1572647095
749.0000000000;95.1723175049
749.5000000000;95.1849212646
750.0000000000;95.2046890259
750.5000000000;95.2011184692
751.0000000000;95.1975860596
751.5000000000;95.2490234375
752.0000000000;95.2981796265
752.5000000000;95.2951965332
753.0000000000;95.2630920410
753.5000000000;95.2396469116
754.0000000000;95.2534866333
754.5000000000;95.2971649170
755.0000000000;95.3486557007
755.5000000000;95.3784103394
756.0000000000;95.3664016724
756.5000000000;95.3218536377
757.0000000000;95.2979202271
757.5000000000;95.3116836548
758.0000000000;95.3475189209
758.5000000000;95.3723907471
759.0000000000;95.3890838623
759.5000000000;95.4394531250
760.0000000000;95.4987030029
760.5000000000;95.5346450806
761.0000000000;95.5638656616
761.5000000000;95.6117095947
762.0000000000;95.6904602051
762.5000000000;95.7433471680
763.0000000000;95.7443237305
763.5000000000;95.7393341064
764.0000000000;95.7613143921
764.5000000000;95.8135910034
765.0000000000;95.8498840332
765.5000000000;95.8810348511
766.0000000000;95.9578018188
766.5000000000;96.0432891846
767.0000000000;96.0927429199
767.5000000000;96.0968856812
768.0000000000;96.0764160156
768.5000000000;96.0627593994
769.0000000000;96.0729751587
769.5000000000;96.1194000244
770.0000000000;96.2046432495
770.5000000000;96.2827148438
771.0000000000;96.3225097656
771.5000000000;96.3567810059
772.0000000000;96.4133453369
772.5000000000;96.4920578003
773.0000000000;96.5338745117
773.5000000000;96.5365066528
774.0000000000;96.5642547607
774.5000000000;96.6240539551
775.0000000000;96.6929244995
775.5000000000;96.7384262085
776.0000000000;96.7554779053
776.5000000000;96.7635498047
777.0000000000;96.7955398560
777.5000000000;96.8466415405
778.0000000000;96.8696594238
778.5000000000;96.8750686646
779.0000000000;96.8853607178
779.5000000000;96.8930740356
780.0000000000;96.9076690674
780.5000000000;96.9438629150
781.0000000000;96.9717559814
781.5000000000;96.9832382202
782.0000000000;97.0102310181
782.5000000000;97.0382080078
783.0000000000;97.0513763428
783.5000000000;97.0844345093
784.0000000000;97.1381607056
784.5000000000;97.1849441528
785.0000000000;97.2209625244
785.5000000000;97.2464370728
786.0000000000;97.2614822388
786.5000000000;97.2823181152
787.0000000000;97.3208923340
787.5000000000;97.3590316772
788.0000000000;97.3752746582
788.5000000000;97.3602600098
789.0000000000;97.3563842773
789.5000000000;97.3849945068
790.0000000000;97.4159469604
790.5000000000;97.4382781982
791.0000000000;97.4576492310
791.5000000000;97.4884338379
792.0000000000;97.5214767456
792.5000000000;97.5333404541
793.0000000000;97.5456161499
793.5000000000;97.5603485107
794.0000000000;97.5357589722
794.5000000000;97.5091781616
795.0000000000;97.5347976685
795.5000000000;97.5903625488
796.0000000000;97.6460037231
796.5000000000;97.6799621582
797.0000000000;97.6910400391
797.5000000000;97.6881790161
798.0000000000;97.6840286255
798.5000000000;97.6821670532
799.0000000000;97.6857223511
799.5000000000;97.7095642090
800.0000000000;97.7358169556
800.5000000000;97.7271804810
801.0000000000;97.7188415527
801.5000000000;97.7380371094
802.0000000000;97.7625045776
802.5000000000;97.7851791382
803.0000000000;97.8041992188
803.5000000000;97.8033142090
804.0000000000;97.7992858887
804.5000000000;97.8287734985
805.0000000000;97.8530120850
805.5000000000;97.8440856934
806.0000000000;97.8310928345
806.5000000000;97.8257522583
807.0000000000;97.8317871094
807.5000000000;97.8646087646
808.0000000000;97.8975906372
808.5000000000;97.8816299438
809.0000000000;97.8692398071
809.5000000000;97.8980255127
810.0000000000;97.9294815063
810.5000000000;97.9356613159
811.0000000000;97.9171676636
811.5000000000;97.9212799072
812.0000000000;97.9497451782
812.5000000000;97.9637298584
813.0000000000;97.9740524292
813.5000000000;97.9828720093
814.0000000000;97.9618682861
814.5000000000;97.9571533203
815.0000000000;98.0073547363
815.5000000000;98.0199356079
816.0000000000;97.9915084839
816.5000000000;98.0005569458
817.0000000000;98.0321273804
817.5000000000;98.0553817749
818.0000000000;98.0622406006
818.5000000000;98.0717163086
819.0000000000;98.0992050171
819.5000000000;98.1171722412
820.0000000000;98.1048812866
820.5000000000;98.0668487549
821.0000000000;98.0640869141
821.5000000000;98.1109466553
822.0000000000;98.1405487061
822.5000000000;98.1450805664
823.0000000000;98.1433563232
823.5000000000;98.1385803223
824.0000000000;98.1355972290
824.5000000000;98.1422576904
825.0000000000;98.1642684937
825.5000000000;98.1938934326
826.0000000000;98.2088165283
826.5000000000;98.2052307129
827.0000000000;98.1954574585
827.5000000000;98.2055130005
828.0000000000;98.2356948853
828.5000000000;98.2660980225
829.0000000000;98.2789154053
829.5000000000;98.2836074829
830.0000000000;98.3132019043
830.5000000000;98.3351058960
831.0000000000;98.3255157471
831.5000000000;98.3317794800
832.0000000000;98.3492202759
832.5000000000;98.3449859619
833.0000000000;98.3342590332
833.5000000000;98.3393783569
834.0000000000;98.3679275513
834.5000000000;98.3631820679
835.0000000000;98.3143386841
835.5000000000;98.3232498169
836.0000000000;98.3576736450
836.5000000000;98.3449249268
837.0000000000;98.3680801392
837.5000000000;98.4202270508
838.0000000000;98.4047393799
838.5000000000;98.3889083862
839.0000000000;98.4162902832
839.5000000000;98.4128189087
840.0000000000;98.4036941528
840.5000000000;98.4326477051
841.0000000000;98.4354400635
841.5000000000;98.4109878540
842.0000000000;98.4152526855
842.5000000000;98.4350051880
843.0000000000;98.4491958618
843.5000000000;98.4557723999
844.0000000000;98.4629440308
844.5000000000;98.4794692993
845.0000000000;98.5038604736
845.5000000000;98.5086059570
846.0000000000;98.4762954712
846.5000000000;98.4984436035
847.0000000000;98.5661087036
847.5000000000;98.5439605713
848.0000000000;98.5024871826
848.5000000000;98.5212402344
849.0000000000;98.5299835205
849.5000000000;98.5151062012
850.0000000000;98.5064239502
850.5000000000;98.5134735107
851.0000000000;98.5253601074
851.5000000000;98.5171127319
852.0000000000;98.4808959961
852.5000000000;98.4355316162
853.0000000000;98.4254302979
853.5000000000;98.4335861206
854.0000000000;98.4265213013
854.5000000000;98.4195175171
855.0000000000;98.4282913208
855.5000000000;98.4538421631
856.0000000000;98.4640655518
856.5000000000;98.4492568970
857.0000000000;98.4414443970
857.5000000000;98.4466094971
858.0000000000;98.4568939209
858.5000000000;98.4632644653
859.0000000000;98.4554672241
859.5000000000;98.4365615845
860.0000000000;98.4583892822
860.5000000000;98.5033721924
861.0000000000;98.4843673706
861.5000000000;98.4608306885
862.0000000000;98.4848175049
862.5000000000;98.4957885742
863.0000000000;98.4765243530
863.5000000000;98.4513244629
864.0000000000;98.4643173218
864.5000000000;98.4976348877
865.0000000000;98.4897689819
865.5000000000;98.4685516357
866.0000000000;98.4609756470
866.5000000000;98.4551620483
867.0000000000;98.4621200562
867.5000000000;98.4808883667
868.0000000000;98.4603652954
868.5000000000;98.4340133667
869.0000000000;98.4698333740
869.5000000000;98.5078735352
870.0000000000;98.5051574707
870.5000000000;98.4785003662
871.0000000000;98.4678344727
871.5000000000;98.4864883423
872.0000000000;98.4891738892
872.5000000000;98.4581146240
873.0000000000;98.4156875610
873.5000000000;98.4327163696
874.0000000000;98.4776763916
874.5000000000;98.4556121826
875.0000000000;98.4454116821
875.5000000000;98.4879531860
876.0000000000;98.5078430176
876.5000000000;98.5001525879
877.0000000000;98.4975662231
877.5000000000;98.5288543701
878.0000000000;98.5609741211
878.5000000000;98.5398788452
879.0000000000;98.4889373779
879.5000000000;98.4652557373
880.0000000000;98.5210571289
880.5000000000;98.5795288086
881.0000000000;98.5894165039
881.5000000000;98.6117630005
882.0000000000;98.6225814819
882.5000000000;98.5887145996
883.0000000000;98.5829544067
883.5000000000;98.6028366089
884.0000000000;98.6002197266
884.5000000000;98.6391983032
885.0000000000;98.6991577148
885.5000000000;98.6521530151
886.0000000000;98.5981140137
886.5000000000;98.6280670166
887.0000000000;98.6483078003
887.5000000000;98.6396865845
888.0000000000;98.6352615356
888.5000000000;98.6469345093
889.0000000000;98.6574935913
889.5000000000;98.6395111084
890.0000000000;98.6269073486
890.5000000000;98.6390380859
891.0000000000;98.6528244019
891.5000000000;98.6577529907
892.0000000000;98.6584167480
892.5000000000;98.6746826172
893.0000000000;98.7131423950
893.5000000000;98.7549819946
894.0000000000;98.7388153076
894.5000000000;98.6959381104
895.0000000000;98.7276458740
895.5000000000;98.7711486816
896.0000000000;98.7700653076
896.5000000000;98.7575912476
897.0000000000;98.7677993774
897.5000000000;98.7994537354
898.0000000000;98.7849884033
898.5000000000;98.7516555786
899.0000000000;98.7681884766
899.5000000000;98.7880935669
900.0000000000;98.8168487549
900.5000000000;98.9110488892
901.0000000000;98.9542160034
901.5000000000;98.8948898315
902.0000000000;98.8617095947
902.5000000000;98.8588714600
903.0000000000;98.8489608765
903.5000000000;98.8620986938
904.0000000000;98.8800430298
904.5000000000;98.8620529175
905.0000000000;98.8438644409
905.5000000000;98.8688583374
906.0000000000;98.9484024048
906.5000000000;98.9731140137
907.0000000000;98.9170761108
907.5000000000;98.9360809326
908.0000000000;99.0021514893
908.5000000000;99.0178756714
909.0000000000;98.9757843018
909.5000000000;98.9571609497
910.0000000000;99.0426330566
910.5000000000;99.1025314331
911.0000000000;99.0682449341
911.5000000000;99.0009231567
912.0000000000;99.0113601685
912.5000000000;99.1071014404
913.0000000000;99.1249237061
913.5000000000;99.0997314453
914.0000000000;99.1219635010
914.5000000000;99.1468048096
915.0000000000;99.1413269043
915.5000000000;99.1065216064
916.0000000000;99.0761871338
916.5000000000;99.0822067261
917.0000000000;99.1319046021
917.5000000000;99.1535186768
918.0000000000;99.1473007202
918.5000000000;99.2399291992
919.0000000000;99.3211135864
919.5000000000;99.2786026001
920.0000000000;99.2785873413
920.5000000000;99.3189926147
921.0000000000;99.2964630127
921.5000000000;99.2694778442
922.0000000000;99.2667083740
922.5000000000;99.2645568848
923.0000000000;99.3126754761
923.5000000000;99.4037399292
924.0000000000;99.4281539917
924.5000000000;99.4162521362
925.0000000000;99.4295501709
925.5000000000;99.4475784302
926.0000000000;99.4528427124
926.5000000000;99.4353179932
927.0000000000;99.3843002319
927.5000000000;99.3767852783
928.0000000000;99.5034484863
928.5000000000;99.5407028198
929.0000000000;99.4486694336
929.5000000000;99.5051574707
930.0000000000;99.6073150635
930.5000000000;99.6052246094
931.0000000000;99.5804214478
931.5000000000;99.5679473877
932.0000000000;99.5723876953
932.5000000000;99.6286010742
933.0000000000;99.6632843018
933.5000000000;99.5759277344
934.0000000000;99.5431289673
934.5000000000;99.6109008789
935.0000000000;99.6235504150
935.5000000000;99.6384963989
936.0000000000;99.7110061646
936.5000000000;99.7593231201
937.0000000000;99.7685699463
937.5000000000;99.7576065063
938.0000000000;99.7263336182
938.5000000000;99.6994857788
939.0000000000;99.7164154053
939.5000000000;99.7937927246
940.0000000000;99.8996810913
940.5000000000;99.9560394287
941.0000000000;99.8877944946
941.5000000000;99.7712554932
942.0000000000;99.8444519043
942.5000000000;99.9688568115
943.0000000000;99.9687728882
943.5000000000;99.9383239746
944.0000000000;99.9375915527
944.5000000000;99.9721298218
945.0000000000;100.0098800659
945.5000000000;100.0344467163
946.0000000000;100.0570526123
946.5000000000;100.1190109253
947.0000000000;100.1839370728
947.5000000000;100.1516265869
948.0000000000;100.1395111084
948.5000000000;100.2156829834
949.0000000000;100.2505874634
949.5000000000;100.2266540527
950.0000000000;100.2003707886
950.5000000000;100.2358932495
951.0000000000;100.2752914429
951.5000000000;100.2415161133
952.0000000000;100.2648544312
952.5000000000;100.3654403687
953.0000000000;100.4422607422
953.5000000000;100.5026779175
954.0000000000;100.5485382080
954.5000000000;100.5473937988
955.0000000000;100.5605163574
955.5000000000;100.6231231689
956.0000000000;100.6654815674
956.5000000000;100.6972274780
957.0000000000;100.7437057495
957.5000000000;100.7561340332
958.0000000000;100.7745895386
958.5000000000;100.8650436401
959.0000000000;100.9321289063
959.5000000000;100.9156494141
960.0000000000;100.8467559814
960.5000000000;100.8549575806
961.0000000000;100.9745635986
961.5000000000;101.0750427246
962.0000000000;101.0303421021
962.5000000000;100.8779602051
963.0000000000;100.8985824585
963.5000000000;101.0484924316
964.0000000000;101.1274032593
964.5000000000;101.0460128784
965.0000000000;100.9803771973
965.5000000000;101.1492309570
966.0000000000;101.3010559082
966.5000000000;101.2244644165
967.0000000000;100.9447860718
967.5000000000;100.9272003174
968.0000000000;101.2225952148
968.5000000000;101.2782974243
969.0000000000;101.1867141724
969.5000000000;101.1790618896
970.0000000000;101.2366333008
970.5000000000;101.1984863281
971.0000000000;101.0406112671
971.5000000000;101.1612243652
972.0000000000;101.4098968506
972.5000000000;101.3934783936
973.0000000000;101.3188781738
973.5000000000;101.3037643433
974.0000000000;101.2934722900
974.5000000000;101.3343734741
975.0000000000;101.3851699829
975.5000000000;101.3203506470
976.0000000000;101.3619689941
976.5000000000;101.5753479004
977.0000000000;101.6041488647
977.5000000000;101.4278564453
978.0000000000;101.2474060059
978.5000000000;101.3043441772
979.0000000000;101.4660415649
979.5000000000;101.4747619629
980.0000000000;101.4195175171
980.5000000000;101.4389877319
981.0000000000;101.5780715942
981.5000000000;101.5780181885
982.0000000000;101.4545669556
982.5000000000;101.4980087280
983.0000000000;101.4790420532
983.5000000000;101.3491897583
984.0000000000;101.4816284180
984.5000000000;101.7226028442
985.0000000000;101.8050613403
985.5000000000;101.7249145508
986.0000000000;101.6714630127
986.5000000000;101.7795486450
987.0000000000;101.8493728638
987.5000000000;101.7805938721
988.0000000000;101.6509857178
988.5000000000;101.7443847656
989.0000000000;101.9757919312
989.5000000000;101.9858093262
990.0000000000;101.8794326782
990.5000000000;101.8419723511
991.0000000000;101.9420547485
991.5000000000;101.8963623047
992.0000000000;101.7240142822
992.5000000000;101.9502334595
993.0000000000;102.1161651611
993.5000000000;101.8609466553
994.0000000000;101.8472747803
994.5000000000;101.9560317993
995.0000000000;101.8505020142
995.5000000000;101.9389724731
996.0000000000;102.0722732544
996.5000000000;101.8766479492
997.0000000000;101.8607940674
997.5000000000;102.1071548462
998.0000000000;102.2142181396
998.5000000000;102.1601028442
999.0000000000;102.0383529663
999.5000000000;101.9635543823
1000.0000000000;102.1066589355
1000.5000000000;102.2984542847
1001.0000000000;101.9907073975
1001.5000000000;101.8204498291
1002.0000000000;102.2202606201
1002.5000000000;102.3061676025
1003.0000000000;102.2819519043
1003.5000000000;102.5999298096
1004.0000000000;102.6434555054
1004.5000000000;102.4333496094
1005.0000000000;102.3840026855
1005.5000000000;102.3519439697
1006.0000000000;102.2956619263
1006.5000000000;102.3280944824
1007.0000000000;102.4218215942
1007.5000000000;102.5463333130
1008.0000000000;102.6810989380
1008.5000000000;102.6757736206
1009.0000000000;102.4779586792
1009.5000000000;102.2478942871
1010.0000000000;102.2649002075
1010.5000000000;102.5687713623
1011.0000000000;102.7433471680
1011.5000000000;102.6314773560
1012.0000000000;102.4080734253
1012.5000000000;102.5518722534
1013.0000000000;102.8536758423
1013.5000000000;102.8530197144
1014.0000000000;102.6873321533
1014.5000000000;102.5829925537
1015.0000000000;102.6622161865
1015.5000000000;102.7420654297
1016.0000000000;102.8361206055
1016.5000000000;103.0863037109
1017.0000000000;103.1057815552
1017.5000000000;102.9033889771
1018.0000000000;102.9506607056
1018.5000000000;102.7826385498
1019.0000000000;102.3502883911
1019.5000000000;102.5286788940
