182.5000000000;0.9462717175
183.0000000000;0.9796951413
183.5000000000;1.0220612288
184.0000000000;1.0530164242
184.5000000000;1.0322378874
185.0000000000;1.0552037954
185.5000000000;1.1934751272
186.0000000000;1.3185153008
186.5000000000;1.4670782089
187.0000000000;1.7527881861
187.5000000000;1.9586703777
188.0000000000;2.0407345295
188.5000000000;2.1667521000
189.0000000000;2.3559334278
189.5000000000;2.4939799309
190.0000000000;2.5672569275
190.5000000000;2.5891623497
191.0000000000;2.6429338455
191.5000000000;2.7806074619
192.0000000000;2.8595154285
192.5000000000;2.8065807819
193.0000000000;2.7521893978
193.5000000000;2.7618994713
194.0000000000;2.8290572166
194.5000000000;2.9000260830
195.0000000000;2.9169402122
195.5000000000;2.9183733463
196.0000000000;2.9253745079
196.5000000000;2.9259858131
197.0000000000;2.9223189354
197.5000000000;2.9274311066
198.0000000000;2.9700820446
198.5000000000;3.0448570251
199.0000000000;3.0851242542
199.5000000000;3.0846204758
200.0000000000;3.0844240189
200.5000000000;3.1057877541
201.0000000000;3.1525590420
201.5000000000;3.2045145035
202.0000000000;3.2275636196
202.5000000000;3.2005071640
203.0000000000;3.2123081684
203.5000000000;3.3190977573
204.0000000000;3.3481669426
204.5000000000;3.2547299862
205.0000000000;3.2277767658
205.5000000000;3.2513897419
206.0000000000;3.2431488037
206.5000000000;3.2167642117
207.0000000000;3.2014265060
207.5000000000;3.2065596581
208.0000000000;3.2181715965
208.5000000000;3.2069327831
209.0000000000;3.1809990406
209.5000000000;3.1612815857
210.0000000000;3.1630785465
210.5000000000;3.1652414799
211.0000000000;3.1207914352
211.5000000000;3.0915758610
212.0000000000;3.1418702602
212.5000000000;3.2209689617
213.0000000000;3.2451236248
213.5000000000;3.1759290695
214.0000000000;3.1362872124
214.5000000000;3.2443842888
215.0000000000;3.3359370232
215.5000000000;3.2381956577
216.0000000000;3.1783800125
216.5000000000;3.2045698166
217.0000000000;3.2625653744
217.5000000000;3.2976765633
218.0000000000;3.2826602459
218.5000000000;3.2843887806
219.0000000000;3.3182401657
219.5000000000;3.3284668922
220.0000000000;3.3182501793
220.5000000000;3.3168873787
221.0000000000;3.3089525700
221.5000000000;3.3021681309
222.0000000000;3.3556628227
222.5000000000;3.4285371304
223.0000000000;3.3811380863
223.5000000000;3.3217034340
224.0000000000;3.3429028988
224.5000000000;3.3654394150
225.0000000000;3.3396294117
225.5000000000;3.2982525826
226.0000000000;3.3050756454
226.5000000000;3.3976733685
227.0000000000;3.3900187016
227.5000000000;3.2513320446
228.0000000000;3.2213132381
228.5000000000;3.2710227966
229.0000000000;3.2579696178
229.5000000000;3.2120733261
230.0000000000;3.1931033134
230.5000000000;3.2055900097
231.0000000000;3.2172043324
231.5000000000;3.1789107323
232.0000000000;3.1582777500
232.5000000000;3.2082664967
233.0000000000;3.2359230518
233.5000000000;3.1970717907
234.0000000000;3.1652340889
234.5000000000;3.1638605595
235.0000000000;3.1873319149
235.5000000000;3.2088959217
236.0000000000;3.2165999413
236.5000000000;3.2359430790
237.0000000000;3.2644457817
237.5000000000;3.2744863033
238.0000000000;3.2523639202
238.5000000000;3.2153520584
239.0000000000;3.2163963318
239.5000000000;3.2531611919
240.0000000000;3.2720167637
240.5000000000;3.2681159973
241.0000000000;3.2629878521
241.5000000000;3.2722151279
242.0000000000;3.2900314331
242.5000000000;3.2852714062
243.0000000000;3.2654821873
243.5000000000;3.2572767735
244.0000000000;3.2685573101
244.5000000000;3.2897572517
245.0000000000;3.2855129242
245.5000000000;3.2727789879
246.0000000000;3.3008580208
246.5000000000;3.3310482502
247.0000000000;3.3115024567
247.5000000000;3.2799315453
248.0000000000;3.2630736828
248.5000000000;3.2601854801
249.0000000000;3.2570564747
249.5000000000;3.2396919727
250.0000000000;3.2209103107
250.5000000000;3.2042410374
251.0000000000;3.1743390560
251.5000000000;3.1502974033
252.0000000000;3.1592044830
252.5000000000;3.1581966877
253.0000000000;3.1278038025
253.5000000000;3.1412577629
254.0000000000;3.1787152290
254.5000000000;3.1313347816
255.0000000000;3.0793821812
255.5000000000;3.0980410576
256.0000000000;3.1041350365
256.5000000000;3.0683972836
257.0000000000;3.0576159954
257.5000000000;3.0592200756
258.0000000000;3.0360732079
258.5000000000;3.0179703236
259.0000000000;3.0177457333
259.5000000000;3.0057435036
260.0000000000;2.9873721600
260.5000000000;2.9844443798
261.0000000000;2.9736623764
261.5000000000;2.9366958141
262.0000000000;2.8900849819
262.5000000000;2.8423066139
263.0000000000;2.7946140766
263.5000000000;2.7578155994
264.0000000000;2.7307429314
264.5000000000;2.6818623543
265.0000000000;2.6069941521
265.5000000000;2.5277874470
266.0000000000;2.4637012482
266.5000000000;2.4225218296
267.0000000000;2.3934829235
267.5000000000;2.3658385277
268.0000000000;2.3319962025
268.5000000000;2.2952377796
269.0000000000;2.2636950016
269.5000000000;2.2435424328
270.0000000000;2.2305452824
270.5000000000;2.2041809559
271.0000000000;2.1688807011
271.5000000000;2.1435577869
272.0000000000;2.1210978031
272.5000000000;2.0921974182
273.0000000000;2.0616440773
273.5000000000;2.0325281620
274.0000000000;2.0043683052
274.5000000000;1.9755711555
275.0000000000;1.9447559118
275.5000000000;1.9120600224
276.0000000000;1.8790177107
276.5000000000;1.8484693766
277.0000000000;1.8206685781
277.5000000000;1.7942370176
278.0000000000;1.7677094936
278.5000000000;1.7414102554
279.0000000000;1.7186354399
279.5000000000;1.6987366676
280.0000000000;1.6780294180
280.5000000000;1.6561053991
281.0000000000;1.6336938143
281.5000000000;1.6112382412
282.0000000000;1.5889524221
282.5000000000;1.5668032169
283.0000000000;1.5444841385
283.5000000000;1.5217094421
284.0000000000;1.4989653826
284.5000000000;1.4767012596
285.0000000000;1.4548331499
285.5000000000;1.4331316948
286.0000000000;1.4118704796
286.5000000000;1.3928951025
287.0000000000;1.3762345314
287.5000000000;1.3581672907
288.0000000000;1.3400373459
288.5000000000;1.3265141249
289.0000000000;1.3149346113
289.5000000000;1.3020099401
290.0000000000;1.2894188166
290.5000000000;1.2781538963
291.0000000000;1.2678925991
291.5000000000;1.2589900494
292.0000000000;1.2516087294
292.5000000000;1.2443130016
293.0000000000;1.2370014191
293.5000000000;1.2316048145
294.0000000000;1.2272285223
294.5000000000;1.2218960524
295.0000000000;1.2167657614
295.5000000000;1.2128592730
296.0000000000;1.2096642256
296.5000000000;1.2071431875
297.0000000000;1.2054930925
297.5000000000;1.2034476995
298.0000000000;1.2006669044
298.5000000000;1.1998480558
299.0000000000;1.2009189129
299.5000000000;1.2011182308
300.0000000000;1.2009875774
300.5000000000;1.2019282579
301.0000000000;1.2034288645
301.5000000000;1.2052112818
302.0000000000;1.2076637745
302.5000000000;1.2104089260
303.0000000000;1.2128554583
303.5000000000;1.2153592110
304.0000000000;1.2183855772
304.5000000000;1.2221733332
305.0000000000;1.2264236212
305.5000000000;1.2306646109
306.0000000000;1.2353488207
306.5000000000;1.2405339479
307.0000000000;1.2449942827
307.5000000000;1.2493672371
308.0000000000;1.2556236982
308.5000000000;1.2622272968
309.0000000000;1.2674249411
309.5000000000;1.2727867365
310.0000000000;1.2789448500
310.5000000000;1.2849221230
311.0000000000;1.2910221815
311.5000000000;1.2978991270
312.0000000000;1.3049008846
312.5000000000;1.3116227388
313.0000000000;1.3184840679
313.5000000000;1.3253496885
314.0000000000;1.3318440914
314.5000000000;1.3385274410
315.0000000000;1.3456970453
315.5000000000;1.3526353836
316.0000000000;1.3588761091
316.5000000000;1.3644620180
317.0000000000;1.3705656528
317.5000000000;1.3778954744
318.0000000000;1.3849357367
318.5000000000;1.3912482262
319.0000000000;1.3977924585
319.5000000000;1.4039173126
320.0000000000;1.4087747335
320.5000000000;1.4135105610
321.0000000000;1.4190220833
321.5000000000;1.4252461195
322.0000000000;1.4312232733
322.5000000000;1.4360259771
323.0000000000;1.4409338236
323.5000000000;1.4467463493
324.0000000000;1.4524986744
324.5000000000;1.4567785263
325.0000000000;1.4589043856
325.5000000000;1.4629142284
326.0000000000;1.4706683159
326.5000000000;1.4766595364
327.0000000000;1.4796369076
327.5000000000;1.4826674461
328.0000000000;1.4855812788
328.5000000000;1.4880768061
329.0000000000;1.4927072525
329.5000000000;1.4986710548
330.0000000000;1.5015513897
330.5000000000;1.5024495125
331.0000000000;1.5046582222
331.5000000000;1.5094947815
332.0000000000;1.5152801275
332.5000000000;1.5174134970
333.0000000000;1.5179339647
333.5000000000;1.5209500790
334.0000000000;1.5231111050
334.5000000000;1.5242276192
335.0000000000;1.5311316252
335.5000000000;1.5392608643
336.0000000000;1.5389919281
336.5000000000;1.5396335125
337.0000000000;1.5477219820
337.5000000000;1.5539098978
338.0000000000;1.5550630093
338.5000000000;1.5549854040
339.0000000000;1.5566614866
339.5000000000;1.5615807772
340.0000000000;1.5685833693
340.5000000000;1.5754861832
341.0000000000;1.5797544718
341.5000000000;1.5813293457
342.0000000000;1.5818794966
342.5000000000;1.5845998526
343.0000000000;1.5904755592
343.5000000000;1.5975072384
344.0000000000;1.6035729647
344.5000000000;1.6075681448
345.0000000000;1.6122510433
345.5000000000;1.6182774305
346.0000000000;1.6222691536
346.5000000000;1.6257245541
347.0000000000;1.6321866512
347.5000000000;1.6391867399
348.0000000000;1.6449308395
348.5000000000;1.6518242359
349.0000000000;1.6606854200
349.5000000000;1.6703199148
350.0000000000;1.6776376963
350.5000000000;1.6815586090
351.0000000000;1.6865694523
351.5000000000;1.6944304705
352.0000000000;1.7034671307
352.5000000000;1.7105638981
353.0000000000;1.7148658037
353.5000000000;1.7226746082
354.0000000000;1.7355635166
354.5000000000;1.7486931086
355.0000000000;1.7601410151
355.5000000000;1.7694256306
356.0000000000;1.7753372192
356.5000000000;1.7808784246
357.0000000000;1.7936021090
357.5000000000;1.8075466156
358.0000000000;1.8130809069
358.5000000000;1.8209367990
359.0000000000;1.8357779980
359.5000000000;1.8415104151
360.0000000000;1.8458818197
360.5000000000;1.8676302433
361.0000000000;1.8917812109
361.5000000000;1.9086769819
362.0000000000;1.9136506319
362.5000000000;1.9155296087
363.0000000000;1.9331443310
363.5000000000;1.9574604034
364.0000000000;1.9719511271
364.5000000000;1.9723479748
365.0000000000;1.9728937149
365.5000000000;1.9967570305
366.0000000000;2.0205488205
366.5000000000;2.0179076195
367.0000000000;2.0239686966
367.5000000000;2.0507502556
368.0000000000;2.0732688904
368.5000000000;2.0845782757
369.0000000000;2.0905566216
369.5000000000;2.0988507271
370.0000000000;2.1131401062
370.5000000000;2.1303744316
371.0000000000;2.1431877613
371.5000000000;2.1464619637
372.0000000000;2.1543743610
372.5000000000;2.1735188961
373.0000000000;2.1899986267
373.5000000000;2.1989841461
374.0000000000;2.2058579922
374.5000000000;2.2220034599
375.0000000000;2.2457046509
375.5000000000;2.2467336655
376.0000000000;2.2391445637
376.5000000000;2.2634770870
377.0000000000;2.2914173603
377.5000000000;2.2907254696
378.0000000000;2.2895269394
378.5000000000;2.3016579151
379.0000000000;2.3195917606
379.5000000000;2.3319237232
380.0000000000;2.3322675228
380.5000000000;2.3302922249
381.0000000000;2.3348925114
381.5000000000;2.3504185677
382.0000000000;2.3722522259
382.5000000000;2.3876702785
383.0000000000;2.3797574043
383.5000000000;2.3654966354
384.0000000000;2.3931825161
384.5000000000;2.4237141609
385.0000000000;2.3981003761
385.5000000000;2.3965129852
386.0000000000;2.4473164082
386.5000000000;2.4679939747
387.0000000000;2.4381198883
387.5000000000;2.4019334316
388.0000000000;2.4148111343
388.5000000000;2.4663090706
389.0000000000;2.4261412621
389.5000000000;2.3580157757
390.0000000000;2.3914804459
390.5000000000;2.4410233498
391.0000000000;2.4181766510
391.5000000000;2.3989522457
392.0000000000;2.4106066227
392.5000000000;2.4305450916
393.0000000000;2.4217712879
393.5000000000;2.3870155811
394.0000000000;2.4045367241
394.5000000000;2.4555063248
395.0000000000;2.4336721897
395.5000000000;2.3958489895
396.0000000000;2.4080164433
396.5000000000;2.4265284538
397.0000000000;2.4208476543
397.5000000000;2.3993735313
398.0000000000;2.3963978291
398.5000000000;2.4258713722
399.0000000000;2.4228863716
399.5000000000;2.3890321255
400.0000000000;2.4013993740
400.5000000000;2.4255053997
401.0000000000;2.4003582001
401.5000000000;2.3877582550
402.0000000000;2.4033412933
402.5000000000;2.3868656158
403.0000000000;2.3588311672
403.5000000000;2.3629825115
404.0000000000;2.3797633648
404.5000000000;2.3832306862
405.0000000000;2.3620793819
405.5000000000;2.3344378471
406.0000000000;2.3239936829
406.5000000000;2.3308393955
407.0000000000;2.3418743610
407.5000000000;2.3290123940
408.0000000000;2.3036413193
408.5000000000;2.2951030731
409.0000000000;2.2897818089
409.5000000000;2.2749333382
410.0000000000;2.2590091228
410.5000000000;2.2476198673
411.0000000000;2.2406096458
411.5000000000;2.2283437252
412.0000000000;2.2077188492
412.5000000000;2.1917400360
413.0000000000;2.1876270771
413.5000000000;2.1926708221
414.0000000000;2.1751184464
414.5000000000;2.1255772114
415.0000000000;2.0973143578
415.5000000000;2.0969576836
416.0000000000;2.0928673744
416.5000000000;2.0716743469
417.0000000000;2.0390419960
417.5000000000;2.0202133656
418.0000000000;2.0122752190
418.5000000000;1.9903589487
419.0000000000;1.9654104710
419.5000000000;1.9525897503
420.0000000000;1.9381486177
420.5000000000;1.9163917303
421.0000000000;1.8946400881
421.5000000000;1.8754390478
422.0000000000;1.8573400974
422.5000000000;1.8371779919
423.0000000000;1.8154528141
423.5000000000;1.7954636812
424.0000000000;1.7767674923
424.5000000000;1.7565281391
425.0000000000;1.7329406738
425.5000000000;1.7084929943
426.0000000000;1.6860573292
426.5000000000;1.6648927927
427.0000000000;1.6457804441
427.5000000000;1.6297665834
428.0000000000;1.6136658192
428.5000000000;1.5926393270
429.0000000000;1.5683137178
429.5000000000;1.5465183258
430.0000000000;1.5280056000
430.5000000000;1.5103555918
431.0000000000;1.4912140369
431.5000000000;1.4705736637
432.0000000000;1.4498163462
432.5000000000;1.4291311502
433.0000000000;1.4086866379
433.5000000000;1.3899978399
434.0000000000;1.3732913733
434.5000000000;1.3552894592
435.0000000000;1.3359934092
435.5000000000;1.3180196285
436.0000000000;1.2996226549
436.5000000000;1.2809884548
437.0000000000;1.2644518614
437.5000000000;1.2484576702
438.0000000000;1.2314546108
438.5000000000;1.2139848471
439.0000000000;1.1964558363
439.5000000000;1.1791216135
440.0000000000;1.1630194187
440.5000000000;1.1483659744
441.0000000000;1.1335868835
441.5000000000;1.1188637018
442.0000000000;1.1032350063
442.5000000000;1.0869865417
443.0000000000;1.0722277164
443.5000000000;1.0580005646
444.0000000000;1.0435969830
444.5000000000;1.0291993618
445.0000000000;1.0151851177
445.5000000000;1.0016827583
446.0000000000;0.9881520867
446.5000000000;0.9747132659
447.0000000000;0.9617550969
447.5000000000;0.9487128258
448.0000000000;0.9353731871
448.5000000000;0.9223910570
449.0000000000;0.9101092815
449.5000000000;0.8983865380
450.0000000000;0.8867223859
450.5000000000;0.8747004271
451.0000000000;0.8625404239
451.5000000000;0.8506355882
452.0000000000;0.8392763734
452.5000000000;0.8283660412
453.0000000000;0.8175666928
453.5000000000;0.8066474199
454.0000000000;0.7957167625
454.5000000000;0.7851572037
455.0000000000;0.7749621272
455.5000000000;0.7649289370
456.0000000000;0.7550618052
456.5000000000;0.7453069091
457.0000000000;0.7356031537
457.5000000000;0.7260867357
458.0000000000;0.7168628573
458.5000000000;0.7077957392
459.0000000000;0.6984434724
459.5000000000;0.6888007522
460.0000000000;0.6794627905
460.5000000000;0.6706936955
461.0000000000;0.6616479158
461.5000000000;0.6523849368
462.0000000000;0.6438285112
462.5000000000;0.6357476115
463.0000000000;0.6279398799
463.5000000000;0.6201648116
464.0000000000;0.6119775772
464.5000000000;0.6040867567
465.0000000000;0.5964792967
465.5000000000;0.5883843899
466.0000000000;0.5804860592
466.5000000000;0.5732354522
467.0000000000;0.5656967759
467.5000000000;0.5579148531
468.0000000000;0.5505918860
468.5000000000;0.5435695052
469.0000000000;0.5363499522
469.5000000000;0.5289670229
470.0000000000;0.5217193365
470.5000000000;0.5148183703
471.0000000000;0.5083117485
471.5000000000;0.5020357966
472.0000000000;0.4956984222
472.5000000000;0.4893439114
473.0000000000;0.4832385182
473.5000000000;0.4772027731
474.0000000000;0.4708651304
474.5000000000;0.4645175636
475.0000000000;0.4585632384
475.5000000000;0.4529314935
476.0000000000;0.4473076165
476.5000000000;0.4415278435
477.0000000000;0.4357862771
477.5000000000;0.4301195443
478.0000000000;0.4245609045
478.5000000000;0.4192910492
479.0000000000;0.4141423404
479.5000000000;0.4089311063
480.0000000000;0.4038180709
480.5000000000;0.3988198638
481.0000000000;0.3938786089
481.5000000000;0.3889972568
482.0000000000;0.3841264248
482.5000000000;0.3793646097
483.0000000000;0.3748684525
483.5000000000;0.3703880608
484.0000000000;0.3660299778
484.5000000000;0.3624747097
485.0000000000;0.3581672013
485.5000000000;0.3524422050
486.0000000000;0.3489238620
486.5000000000;0.3472694755
487.0000000000;0.3435254395
487.5000000000;0.3374038637
488.0000000000;0.3326295316
488.5000000000;0.3290676773
489.0000000000;0.3252585828
489.5000000000;0.3214802742
490.0000000000;0.3179677129
490.5000000000;0.3144871593
491.0000000000;0.3108844161
491.5000000000;0.3072105944
492.0000000000;0.3037091494
492.5000000000;0.3005132675
493.0000000000;0.2975357771
493.5000000000;0.2944451272
494.0000000000;0.2909595370
494.5000000000;0.2873555720
495.0000000000;0.2840052843
495.5000000000;0.2810748518
496.0000000000;0.2783138752
496.5000000000;0.2755283713
497.0000000000;0.2727541029
497.5000000000;0.2699199617
498.0000000000;0.2670990527
498.5000000000;0.2645263076
499.0000000000;0.2621602416
499.5000000000;0.2595366538
500.0000000000;0.2567008734
500.5000000000;0.2541782856
501.0000000000;0.2519419193
501.5000000000;0.2497360706
502.0000000000;0.2472464740
502.5000000000;0.2446076870
503.0000000000;0.2423616499
503.5000000000;0.2402465194
504.0000000000;0.2379196882
504.5000000000;0.2356259525
505.0000000000;0.2335083634
505.5000000000;0.2315076441
506.0000000000;0.2294469029
506.5000000000;0.2272597700
507.0000000000;0.2251923382
507.5000000000;0.2233034521
508.0000000000;0.2215079963
508.5000000000;0.2196424156
509.0000000000;0.2176039070
509.5000000000;0.2156456262
510.0000000000;0.2139027268
510.5000000000;0.2122890055
511.0000000000;0.2106158882
511.5000000000;0.2088274807
512.0000000000;0.2071248591
512.5000000000;0.2055132538
513.0000000000;0.2038654536
513.5000000000;0.2020880580
514.0000000000;0.2002394646
514.5000000000;0.1986457556
515.0000000000;0.1972089112
515.5000000000;0.1955987215
516.0000000000;0.1940025687
516.5000000000;0.1925599575
517.0000000000;0.1911074370
517.5000000000;0.1896321476
518.0000000000;0.1882181764
518.5000000000;0.1868471205
519.0000000000;0.1854831278
519.5000000000;0.1841002405
520.0000000000;0.1826890856
520.5000000000;0.1812660992
521.0000000000;0.1799353659
521.5000000000;0.1787149012
522.0000000000;0.1774069369
522.5000000000;0.1760211289
523.0000000000;0.1747164577
523.5000000000;0.1734795421
524.0000000000;0.1722539067
524.5000000000;0.1710229814
525.0000000000;0.1698330939
525.5000000000;0.1687357575
526.0000000000;0.1676732302
526.5000000000;0.1665869206
527.0000000000;0.1654586643
527.5000000000;0.1643260866
528.0000000000;0.1632399410
528.5000000000;0.1621602029
529.0000000000;0.1610721052
529.5000000000;0.1600114256
530.0000000000;0.1589893848
530.5000000000;0.1579854786
531.0000000000;0.1569074988
531.5000000000;0.1557878554
532.0000000000;0.1548218280
532.5000000000;0.1539365798
533.0000000000;0.1529805660
533.5000000000;0.1520427465
534.0000000000;0.1511604488
534.5000000000;0.1502586156
535.0000000000;0.1493341625
535.5000000000;0.1484056115
536.0000000000;0.1474155486
536.5000000000;0.1463992596
537.0000000000;0.1455147266
537.5000000000;0.1447058916
538.0000000000;0.1438604444
538.5000000000;0.1430322975
539.0000000000;0.1422179937
539.5000000000;0.1413380355
540.0000000000;0.1404466480
540.5000000000;0.1396120936
541.0000000000;0.1387574822
541.5000000000;0.1378869861
542.0000000000;0.1371057034
542.5000000000;0.1363612115
543.0000000000;0.1355546564
543.5000000000;0.1347091794
544.0000000000;0.1338714957
544.5000000000;0.1330585033
545.0000000000;0.1322592050
545.5000000000;0.1314716041
546.0000000000;0.1307353824
546.5000000000;0.1300122589
547.0000000000;0.1292149574
547.5000000000;0.1284722388
548.0000000000;0.1278716177
548.5000000000;0.1272411942
549.0000000000;0.1264685094
549.5000000000;0.1255729944
550.0000000000;0.1247588545
550.5000000000;0.1241055727
551.0000000000;0.1233660132
551.5000000000;0.1225668266
552.0000000000;0.1219242811
552.5000000000;0.1212994009
553.0000000000;0.1205673739
553.5000000000;0.1198617890
554.0000000000;0.1192324832
554.5000000000;0.1186224967
555.0000000000;0.1179770827
555.5000000000;0.1172874570
556.0000000000;0.1165849566
556.5000000000;0.1159044132
557.0000000000;0.1152718142
557.5000000000;0.1146414205
558.0000000000;0.1139935702
558.5000000000;0.1133624688
559.0000000000;0.1127104834
559.5000000000;0.1120118648
560.0000000000;0.1114034057
560.5000000000;0.1108911559
561.0000000000;0.1102866679
561.5000000000;0.1096410677
562.0000000000;0.1090721786
562.5000000000;0.1084383726
563.0000000000;0.1077193245
563.5000000000;0.1070903242
564.0000000000;0.1065246612
564.5000000000;0.1059342399
565.0000000000;0.1053573191
565.5000000000;0.1047984511
566.0000000000;0.1042136550
566.5000000000;0.1036324352
567.0000000000;0.1031114385
567.5000000000;0.1026595905
568.0000000000;0.1023187041
568.5000000000;0.1021738723
569.0000000000;0.1020604298
569.5000000000;0.1017838940
570.0000000000;0.1013435572
570.5000000000;0.1007195264
571.0000000000;0.0999882445
571.5000000000;0.0996459946
572.0000000000;0.0996978730
572.5000000000;0.0992699191
573.0000000000;0.0984792411
573.5000000000;0.0979674682
574.0000000000;0.0976945981
574.5000000000;0.0974726006
575.0000000000;0.0972388163
575.5000000000;0.0968398452
576.0000000000;0.0960788503
576.5000000000;0.0949234739
577.0000000000;0.0938188285
577.5000000000;0.0938158482
578.0000000000;0.0940380096
578.5000000000;0.0929262713
579.0000000000;0.0911214352
579.5000000000;0.0898531005
580.0000000000;0.0899451822
580.5000000000;0.0907921791
581.0000000000;0.0913616940
581.5000000000;0.0919905305
582.0000000000;0.0924955383
582.5000000000;0.0919518545
583.0000000000;0.0907265693
583.5000000000;0.0899257734
584.0000000000;0.0898375362
584.5000000000;0.0899910927
585.0000000000;0.0895980969
585.5000000000;0.0888609812
586.0000000000;0.0882352293
586.5000000000;0.0876725242
587.0000000000;0.0871644542
587.5000000000;0.0868081450
588.0000000000;0.0865416676
588.5000000000;0.0862009972
589.0000000000;0.0855731443
589.5000000000;0.0846997350
590.0000000000;0.0839014202
590.5000000000;0.0833137110
591.0000000000;0.0829049870
591.5000000000;0.0825491622
592.0000000000;0.0821253210
592.5000000000;0.0816043988
593.0000000000;0.0811911747
593.5000000000;0.0808589011
594.0000000000;0.0802433118
594.5000000000;0.0795369521
595.0000000000;0.0791081265
595.5000000000;0.0785888955
596.0000000000;0.0777904019
596.5000000000;0.0770724118
597.0000000000;0.0765383765
597.5000000000;0.0760573968
598.0000000000;0.0754653513
598.5000000000;0.0747750923
599.0000000000;0.0742156431
599.5000000000;0.0737329349
600.0000000000;0.0732177123
600.5000000000;0.0728409141
601.0000000000;0.0726099238
601.5000000000;0.0723175257
602.0000000000;0.0718665347
602.5000000000;0.0712946951
603.0000000000;0.0708044469
603.5000000000;0.0704506412
604.0000000000;0.0701183900
604.5000000000;0.0696530789
605.0000000000;0.0690841526
605.5000000000;0.0686793253
606.0000000000;0.0684564486
606.5000000000;0.0682853386
607.0000000000;0.0680758283
607.5000000000;0.0678113922
608.0000000000;0.0675795227
608.5000000000;0.0673356429
609.0000000000;0.0670299456
609.5000000000;0.0669230074
610.0000000000;0.0669952333
610.5000000000;0.0668374971
611.0000000000;0.0665694103
611.5000000000;0.0664611310
612.0000000000;0.0663910285
612.5000000000;0.0662785098
613.0000000000;0.0661642700
613.5000000000;0.0660457760
614.0000000000;0.0659111217
614.5000000000;0.0657794327
615.0000000000;0.0656313673
615.5000000000;0.0654326156
616.0000000000;0.0652484670
616.5000000000;0.0650728494
617.0000000000;0.0647467747
617.5000000000;0.0644449219
618.0000000000;0.0644533858
618.5000000000;0.0644970089
619.0000000000;0.0643615052
619.5000000000;0.0641914532
620.0000000000;0.0640376881
620.5000000000;0.0638431385
621.0000000000;0.0634886473
621.5000000000;0.0630946308
622.0000000000;0.0630333722
622.5000000000;0.0630523637
623.0000000000;0.0627700835
623.5000000000;0.0623579212
624.0000000000;0.0619907565
624.5000000000;0.0617101192
625.0000000000;0.0613358207
625.5000000000;0.0607918762
626.0000000000;0.0604476742
626.5000000000;0.0602985099
627.0000000000;0.0600268245
627.5000000000;0.0597631969
628.0000000000;0.0595925488
628.5000000000;0.0592485517
629.0000000000;0.0587941594
629.5000000000;0.0584709905
630.0000000000;0.0581550784
630.5000000000;0.0577314645
631.0000000000;0.0572607182
631.5000000000;0.0568546429
632.0000000000;0.0565900914
632.5000000000;0.0563766398
633.0000000000;0.0561267175
633.5000000000;0.0558111630
634.0000000000;0.0554911755
634.5000000000;0.0552314445
635.0000000000;0.0549918339
635.5000000000;0.0547616854
636.0000000000;0.0545672365
636.5000000000;0.0543863885
637.0000000000;0.0541945770
637.5000000000;0.0540022403
638.0000000000;0.0537772141
638.5000000000;0.0534772538
639.0000000000;0.0532161631
639.5000000000;0.0530583449
640.0000000000;0.0529063419
640.5000000000;0.0527125001
641.0000000000;0.0524870530
641.5000000000;0.0523024984
642.0000000000;0.0521773659
642.5000000000;0.0520462357
643.0000000000;0.0519459136
643.5000000000;0.0519093461
644.0000000000;0.0518074781
644.5000000000;0.0516181141
645.0000000000;0.0514556020
645.5000000000;0.0513696149
646.0000000000;0.0513435304
646.5000000000;0.0512872450
647.0000000000;0.0511713661
647.5000000000;0.0510365628
648.0000000000;0.0509744659
648.5000000000;0.0509847887
649.0000000000;0.0508974642
649.5000000000;0.0507239290
650.0000000000;0.0505830869
650.5000000000;0.0505028181
651.0000000000;0.0504544750
651.5000000000;0.0503701381
652.0000000000;0.0502545126
652.5000000000;0.0501551107
653.0000000000;0.0501222126
653.5000000000;0.0499759279
654.0000000000;0.0495723039
654.5000000000;0.0504674315
655.0000000000;0.0526840985
655.5000000000;0.0513474084
656.0000000000;0.0508952625
656.5000000000;0.0541467294
657.0000000000;0.0577223077
657.5000000000;0.0520970635
658.0000000000;0.0478858426
658.5000000000;0.0484797470
659.0000000000;0.0482672453
659.5000000000;0.0476656742
660.0000000000;0.0474784002
660.5000000000;0.0471950397
661.0000000000;0.0468866043
661.5000000000;0.0467531458
662.0000000000;0.0464569703
662.5000000000;0.0460234769
663.0000000000;0.0458359867
663.5000000000;0.0457162373
664.0000000000;0.0454360023
664.5000000000;0.0451010764
665.0000000000;0.0447745137
665.5000000000;0.0444460176
666.0000000000;0.0440854840
666.5000000000;0.0437063910
667.0000000000;0.0433929414
667.5000000000;0.0431687050
668.0000000000;0.0429966599
668.5000000000;0.0427870601
669.0000000000;0.0425390974
669.5000000000;0.0423447601
670.0000000000;0.0421368778
670.5000000000;0.0418624170
671.0000000000;0.0416677147
671.5000000000;0.0415329039
672.0000000000;0.0413045883
672.5000000000;0.0410536006
673.0000000000;0.0408468507
673.5000000000;0.0406207331
674.0000000000;0.0404079594
674.5000000000;0.0402650796
675.0000000000;0.0400629565
675.5000000000;0.0397935137
676.0000000000;0.0396383069
676.5000000000;0.0395257510
677.0000000000;0.0393233709
677.5000000000;0.0390985310
678.0000000000;0.0389286727
678.5000000000;0.0388443917
679.0000000000;0.0387553461
679.5000000000;0.0385988131
680.0000000000;0.0384457894
680.5000000000;0.0382956229
681.0000000000;0.0381205902
681.5000000000;0.0380455889
682.0000000000;0.0380574651
682.5000000000;0.0379132554
683.0000000000;0.0376866460
683.5000000000;0.0375734940
684.0000000000;0.0375612788
684.5000000000;0.0376121104
685.0000000000;0.0376925915
685.5000000000;0.0376848839
686.0000000000;0.0375163406
686.5000000000;0.0372911654
687.0000000000;0.0371460840
687.5000000000;0.0371629447
688.0000000000;0.0371569805
688.5000000000;0.0370361134
689.0000000000;0.0369676314
689.5000000000;0.0370039344
690.0000000000;0.0370879583
690.5000000000;0.0370835438
691.0000000000;0.0370148346
691.5000000000;0.0370645486
692.0000000000;0.0370887890
692.5000000000;0.0369605348
693.0000000000;0.0369148850
693.5000000000;0.0369196497
694.0000000000;0.0367517285
694.5000000000;0.0365817174
695.0000000000;0.0365167670
695.5000000000;0.0363694280
696.0000000000;0.0362017192
696.5000000000;0.0361709446
697.0000000000;0.0361599214
697.5000000000;0.0360655971
698.0000000000;0.0358803011
698.5000000000;0.0356626920
699.0000000000;0.0354615264
699.5000000000;0.0352294147
700.0000000000;0.0350235105
700.5000000000;0.0349542797
701.0000000000;0.0348750502
701.5000000000;0.0346823409
702.0000000000;0.0344809927
702.5000000000;0.0343404748
703.0000000000;0.0342472345
703.5000000000;0.0340421721
704.0000000000;0.0337262861
704.5000000000;0.0335003398
705.0000000000;0.0333550461
705.5000000000;0.0332175456
706.0000000000;0.0330986492
706.5000000000;0.0330054611
707.0000000000;0.0329167061
707.5000000000;0.0327544697
708.0000000000;0.0324837491
708.5000000000;0.0321707614
709.0000000000;0.0318777449
709.5000000000;0.0316363536
710.0000000000;0.0314242318
710.5000000000;0.0312203728
711.0000000000;0.0310159791
711.5000000000;0.0308307167
712.0000000000;0.0306821577
712.5000000000;0.0305486508
713.0000000000;0.0304221865
713.5000000000;0.0302951485
714.0000000000;0.0300905909
714.5000000000;0.0298133902
715.0000000000;0.0296130776
715.5000000000;0.0294757280
716.0000000000;0.0292884111
716.5000000000;0.0289642364
717.0000000000;0.0285958331
717.5000000000;0.0284055695
718.0000000000;0.0282585621
718.5000000000;0.0280127898
719.0000000000;0.0277960896
719.5000000000;0.0275802333
720.0000000000;0.0272542890
720.5000000000;0.0269740112
721.0000000000;0.0268063191
721.5000000000;0.0266023465
722.0000000000;0.0263696108
722.5000000000;0.0261738300
723.0000000000;0.0259934273
723.5000000000;0.0258223116
724.0000000000;0.0256746430
724.5000000000;0.0255361795
725.0000000000;0.0254071392
725.5000000000;0.0253229626
726.0000000000;0.0252388641
726.5000000000;0.0250841565
727.0000000000;0.0249024294
727.5000000000;0.0247231182
728.0000000000;0.0245272964
728.5000000000;0.0243583936
729.0000000000;0.0242344607
729.5000000000;0.0240478925
730.0000000000;0.0238753930
730.5000000000;0.0239008665
731.0000000000;0.0239499230
731.5000000000;0.0238613039
732.0000000000;0.0236731376
732.5000000000;0.0234457161
733.0000000000;0.0232568514
733.5000000000;0.0232159272
734.0000000000;0.0232855659
734.5000000000;0.0232942849
735.0000000000;0.0232711975
735.5000000000;0.0232548509
736.0000000000;0.0231456272
736.5000000000;0.0229582638
737.0000000000;0.0227926616
737.5000000000;0.0226772390
738.0000000000;0.0225709602
738.5000000000;0.0223986898
739.0000000000;0.0223266166
739.5000000000;0.0224744752
740.0000000000;0.0225573238
740.5000000000;0.0224686489
741.0000000000;0.0223147832
741.5000000000;0.0221766122
742.0000000000;0.0220909175
742.5000000000;0.0220286306
743.0000000000;0.0219543017
743.5000000000;0.0218665544
744.0000000000;0.0218643565
744.5000000000;0.0219043326
745.0000000000;0.0218085274
745.5000000000;0.0217026845
746.0000000000;0.0217067376
746.5000000000;0.0216757879
747.0000000000;0.0216303337
747.5000000000;0.0216756985
748.0000000000;0.0216681212
748.5000000000;0.0215580463
749.0000000000;0.0214893501
749.5000000000;0.0214318410
750.0000000000;0.0213416740
750.5000000000;0.0213579666
751.0000000000;0.0213740729
751.5000000000;0.0211394671
752.0000000000;0.0209154002
752.5000000000;0.0209290069
753.0000000000;0.0210753288
753.5000000000;0.0211822242
754.0000000000;0.0211191140
754.5000000000;0.0209200084
755.0000000000;0.0206854381
755.5000000000;0.0205499250
756.0000000000;0.0206045918
756.5000000000;0.0208075158
757.0000000000;0.0209165886
757.5000000000;0.0208538715
758.0000000000;0.0206906013
758.5000000000;0.0205773413
759.0000000000;0.0205013081
759.5000000000;0.0202720650
760.0000000000;0.0200025346
760.5000000000;0.0198391210
761.0000000000;0.0197062977
761.5000000000;0.0194888990
762.0000000000;0.0191313643
762.5000000000;0.0188914109
763.0000000000;0.0188869573
763.5000000000;0.0189095922
764.0000000000;0.0188098904
764.5000000000;0.0185728818
765.0000000000;0.0184084214
765.5000000000;0.0182672944
766.0000000000;0.0179197118
766.5000000000;0.0175329838
767.0000000000;0.0173094105
767.5000000000;0.0172907040
768.0000000000;0.0173831973
768.5000000000;0.0174449570
769.0000000000;0.0173987653
769.5000000000;0.0171889458
770.0000000000;0.0168039761
770.5000000000;0.0164516587
771.0000000000;0.0162722189
771.5000000000;0.0161177330
772.0000000000;0.0158628412
772.5000000000;0.0155084208
773.0000000000;0.0153202508
773.5000000000;0.0153084313
774.0000000000;0.0151836025
774.5000000000;0.0149147380
775.0000000000;0.0146052996
775.5000000000;0.0144009655
776.0000000000;0.0143244248
776.5000000000;0.0142882112
777.0000000000;0.0141446665
777.5000000000;0.0139154391
778.0000000000;0.0138122197
778.5000000000;0.0137879709
779.0000000000;0.0137418471
779.5000000000;0.0137072802
780.0000000000;0.0136418510
780.5000000000;0.0134796845
781.0000000000;0.0133547243
781.5000000000;0.0133033022
782.0000000000;0.0131824622
782.5000000000;0.0130572338
783.0000000000;0.0129983034
783.5000000000;0.0128503786
784.0000000000;0.0126101086
784.5000000000;0.0124010053
785.0000000000;0.0122400988
785.5000000000;0.0121262940
786.0000000000;0.0120591056
786.5000000000;0.0119660860
787.0000000000;0.0117939292
787.5000000000;0.0116237579
788.0000000000;0.0115513206
788.5000000000;0.0116182715
789.0000000000;0.0116355615
789.5000000000;0.0115079479
790.0000000000;0.0113699548
790.5000000000;0.0112703945
791.0000000000;0.0111840842
791.5000000000;0.0110468920
792.0000000000;0.0108997440
792.5000000000;0.0108469147
793.0000000000;0.0107922386
793.5000000000;0.0107266624
794.0000000000;0.0108361235
794.5000000000;0.0109545002
795.0000000000;0.0108404020
795.5000000000;0.0105930679
796.0000000000;0.0103455335
796.5000000000;0.0101945037
797.0000000000;0.0101452656
797.5000000000;0.0101579707
798.0000000000;0.0101764482
798.5000000000;0.0101847006
799.0000000000;0.0101688961
799.5000000000;0.0100629320
800.0000000000;0.0099462569
800.5000000000;0.0099846376
801.0000000000;0.0100216772
801.5000000000;0.0099363811
802.0000000000;0.0098276818
802.5000000000;0.0097269630
803.0000000000;0.0096425107
803.5000000000;0.0096464287
804.0000000000;0.0096643083
804.5000000000;0.0095334044
805.0000000000;0.0094258180
805.5000000000;0.0094654188
806.0000000000;0.0095230881
806.5000000000;0.0095467959
807.0000000000;0.0095200073
807.5000000000;0.0093743484
808.0000000000;0.0092279958
808.5000000000;0.0092988024
809.0000000000;0.0093537997
809.5000000000;0.0092260577
810.0000000000;0.0090865502
810.5000000000;0.0090591488
811.0000000000;0.0091411443
811.5000000000;0.0091229146
812.0000000000;0.0089966962
812.5000000000;0.0089346888
813.0000000000;0.0088889282
813.5000000000;0.0088498481
814.0000000000;0.0089429561
814.5000000000;0.0089638289
815.0000000000;0.0087413369
815.5000000000;0.0086855981
816.0000000000;0.0088115446
816.5000000000;0.0087714680
817.0000000000;0.0086315693
817.5000000000;0.0085285688
818.0000000000;0.0084981881
818.5000000000;0.0084562302
819.0000000000;0.0083345240
819.5000000000;0.0082549723
820.0000000000;0.0083093857
820.5000000000;0.0084777847
821.0000000000;0.0084900064
821.5000000000;0.0082825273
822.0000000000;0.0081515294
822.5000000000;0.0081314687
823.0000000000;0.0081390832
823.5000000000;0.0081602186
824.0000000000;0.0081734424
824.5000000000;0.0081439549
825.0000000000;0.0080465497
825.5000000000;0.0079155359
826.0000000000;0.0078495378
826.5000000000;0.0078653684
827.0000000000;0.0079086004
827.5000000000;0.0078641288
828.0000000000;0.0077306828
828.5000000000;0.0075962916
829.0000000000;0.0075396495
829.5000000000;0.0075188973
830.0000000000;0.0073881573
830.5000000000;0.0072914036
831.0000000000;0.0073337676
831.5000000000;0.0073061124
832.0000000000;0.0072290818
832.5000000000;0.0072477711
833.0000000000;0.0072951545
833.5000000000;0.0072725299
834.0000000000;0.0071464856
834.5000000000;0.0071674460
835.0000000000;0.0073831226
835.5000000000;0.0073437672
836.0000000000;0.0071917502
836.5000000000;0.0072480575
837.0000000000;0.0071458039
837.5000000000;0.0069156480
838.0000000000;0.0069839722
838.5000000000;0.0070538484
839.0000000000;0.0069329995
839.5000000000;0.0069483439
840.0000000000;0.0069886092
840.5000000000;0.0068608206
841.0000000000;0.0068485159
841.5000000000;0.0069564092
842.0000000000;0.0069375746
842.5000000000;0.0068504298
843.0000000000;0.0067878305
843.5000000000;0.0067588040
844.0000000000;0.0067271972
844.5000000000;0.0066542863
845.0000000000;0.0065467563
845.5000000000;0.0065258332
846.0000000000;0.0066682911
846.5000000000;0.0065706372
847.0000000000;0.0062723812
847.5000000000;0.0063699745
848.0000000000;0.0065528201
848.5000000000;0.0064701415
849.0000000000;0.0064315777
849.5000000000;0.0064971563
850.0000000000;0.0065354402
850.5000000000;0.0065043536
851.0000000000;0.0064519537
851.5000000000;0.0064883209
852.0000000000;0.0066480022
852.5000000000;0.0068481094
853.0000000000;0.0068926797
853.5000000000;0.0068567037
854.0000000000;0.0068878671
854.5000000000;0.0069187777
855.0000000000;0.0068800533
855.5000000000;0.0067673367
856.0000000000;0.0067222444
856.5000000000;0.0067875534
857.0000000000;0.0068220296
857.5000000000;0.0067992201
858.0000000000;0.0067538768
858.5000000000;0.0067257611
859.0000000000;0.0067601698
859.5000000000;0.0068435580
860.0000000000;0.0067472565
860.5000000000;0.0065489123
861.0000000000;0.0066327108
861.5000000000;0.0067365039
862.0000000000;0.0066307215
862.5000000000;0.0065823453
863.0000000000;0.0066672745
863.5000000000;0.0067784307
864.0000000000;0.0067211371
864.5000000000;0.0065741949
865.0000000000;0.0066088717
865.5000000000;0.0067024431
866.0000000000;0.0067358492
866.5000000000;0.0067614932
867.0000000000;0.0067308331
867.5000000000;0.0066480315
868.0000000000;0.0067385435
868.5000000000;0.0068548070
869.0000000000;0.0066967946
869.5000000000;0.0065290709
870.0000000000;0.0065410151
870.5000000000;0.0066585802
871.0000000000;0.0067056254
871.5000000000;0.0066233478
872.0000000000;0.0066114976
872.5000000000;0.0067484756
873.0000000000;0.0069356658
873.5000000000;0.0068605244
874.0000000000;0.0066622230
874.5000000000;0.0067595104
875.0000000000;0.0068045128
875.5000000000;0.0066168858
876.0000000000;0.0065291985
876.5000000000;0.0065630870
877.0000000000;0.0065744971
877.5000000000;0.0064365659
878.0000000000;0.0062950100
878.5000000000;0.0063879611
879.0000000000;0.0066125565
879.5000000000;0.0067169741
880.0000000000;0.0064709405
880.5000000000;0.0062132543
881.0000000000;0.0061697192
881.5000000000;0.0060712802
882.0000000000;0.0060236370
882.5000000000;0.0061727827
883.0000000000;0.0061981813
883.5000000000;0.0061105904
884.0000000000;0.0061221193
884.5000000000;0.0059504556
885.0000000000;0.0056865443
885.5000000000;0.0058934209
886.0000000000;0.0061313850
886.5000000000;0.0059994701
887.0000000000;0.0059103761
887.5000000000;0.0059483070
888.0000000000;0.0059678033
888.5000000000;0.0059164064
889.0000000000;0.0058699287
889.5000000000;0.0059490935
890.0000000000;0.0060045971
890.5000000000;0.0059511825
891.0000000000;0.0058904840
891.5000000000;0.0058687786
892.0000000000;0.0058658435
892.5000000000;0.0057942551
893.0000000000;0.0056250230
893.5000000000;0.0054409718
894.0000000000;0.0055120816
894.5000000000;0.0057007298
895.0000000000;0.0055612237
895.5000000000;0.0053698793
896.0000000000;0.0053746509
896.5000000000;0.0054295221
897.0000000000;0.0053846366
897.5000000000;0.0052454597
898.0000000000;0.0053090374
898.5000000000;0.0054555992
899.0000000000;0.0053829206
899.5000000000;0.0052953931
900.0000000000;0.0051690061
900.5000000000;0.0047551822
901.0000000000;0.0045656972
901.5000000000;0.0048261350
902.0000000000;0.0049718744
902.5000000000;0.0049843541
903.0000000000;0.0050278809
903.5000000000;0.0049701715
904.0000000000;0.0048913620
904.5000000000;0.0049703657
905.0000000000;0.0050502680
905.5000000000;0.0049404679
906.0000000000;0.0045912205
906.5000000000;0.0044827629
907.0000000000;0.0047287196
907.5000000000;0.0046453010
908.0000000000;0.0043553733
908.5000000000;0.0042864042
909.0000000000;0.0044710315
909.5000000000;0.0045527681
910.0000000000;0.0041778130
910.5000000000;0.0039152540
911.0000000000;0.0040655402
911.5000000000;0.0043607657
912.0000000000;0.0043149586
912.5000000000;0.0038952106
913.0000000000;0.0038171418
913.5000000000;0.0039275382
914.0000000000;0.0038300930
914.5000000000;0.0037212728
915.0000000000;0.0037452700
915.5000000000;0.0038977647
916.0000000000;0.0040307227
916.5000000000;0.0040043145
917.0000000000;0.0037865469
917.5000000000;0.0036918647
918.0000000000;0.0037190961
918.5000000000;0.0033135687
919.0000000000;0.0029584239
919.5000000000;0.0031443518
920.0000000000;0.0031443983
920.5000000000;0.0029676906
921.0000000000;0.0030662147
921.5000000000;0.0031842722
922.0000000000;0.0031963817
922.5000000000;0.0032057958
923.0000000000;0.0029953346
923.5000000000;0.0025972668
924.0000000000;0.0024906085
924.5000000000;0.0025426112
925.0000000000;0.0024845127
925.5000000000;0.0024057978
926.0000000000;0.0023828114
926.5000000000;0.0024593254
927.0000000000;0.0026822186
927.5000000000;0.0027150474
928.0000000000;0.0021618754
928.5000000000;0.0019993042
929.0000000000;0.0024010355
929.5000000000;0.0021544078
930.0000000000;0.0017087557
930.5000000000;0.0017178799
931.0000000000;0.0018260527
931.5000000000;0.0018804487
932.0000000000;0.0018610936
932.5000000000;0.0016159767
933.0000000000;0.0014648059
933.5000000000;0.0018456526
934.0000000000;0.0019886959
934.5000000000;0.0016931177
935.0000000000;0.0016379927
935.5000000000;0.0015728385
936.0000000000;0.0012569097
936.5000000000;0.0010465074
937.0000000000;0.0010062597
937.5000000000;0.0010539799
938.0000000000;0.0011901375
938.5000000000;0.0013070748
939.0000000000;0.0012333544
939.5000000000;0.0008964880
940.0000000000;0.0004358884
940.5000000000;0.0001909554
941.0000000000;0.0004875915
941.5000000000;0.0009945617
942.0000000000;0.0006760712
942.5000000000;0.0001352707
943.0000000000;0.0001356481
943.5000000000;0.0002679442
944.0000000000;0.0002711081
944.5000000000;0.0001210550
945.0000000000;-0.0000429156
945.5000000000;-0.0001495623
946.0000000000;-0.0002476953
946.5000000000;-0.0005165357
947.0000000000;-0.0007981089
947.5000000000;-0.0006580207
948.0000000000;-0.0006054665
948.5000000000;-0.0009357068
949.0000000000;-0.0010869422
949.5000000000;-0.0009832419
950.0000000000;-0.0008693369
950.5000000000;-0.0010232780
951.0000000000;-0.0011939470
951.5000000000;-0.0010476132
952.0000000000;-0.0011487228
952.5000000000;-0.0015841958
953.0000000000;-0.0019164870
953.5000000000;-0.0021776403
954.0000000000;-0.0023757666
954.5000000000;-0.0023708132
955.0000000000;-0.0024275109
955.5000000000;-0.0026977786
956.0000000000;-0.0028805907
956.5000000000;-0.0030175133
957.0000000000;-0.0032179069
957.5000000000;-0.0032714983
958.0000000000;-0.0033510297
958.5000000000;-0.0037406678
959.0000000000;-0.0040294309
959.5000000000;-0.0039585130
960.0000000000;-0.0036619457
960.5000000000;-0.0036972447
961.0000000000;-0.0042120009
961.5000000000;-0.0046439306
962.0000000000;-0.0044518318
962.5000000000;-0.0037962918
963.0000000000;-0.0038850578
963.5000000000;-0.0045298534
964.0000000000;-0.0048688506
964.5000000000;-0.0045191711
965.0000000000;-0.0042370036
965.5000000000;-0.0049625733
966.0000000000;-0.0056139636
966.5000000000;-0.0052854987
967.0000000000;-0.0040838979
967.5000000000;-0.0040082154
968.0000000000;-0.0052774576
968.5000000000;-0.0055163866
969.0000000000;-0.0051234770
969.5000000000;-0.0050906511
970.0000000000;-0.0053376863
970.5000000000;-0.0051740040
971.0000000000;-0.0044959518
971.5000000000;-0.0050140764
972.0000000000;-0.0060803550
972.5000000000;-0.0060100188
973.0000000000;-0.0056903847
973.5000000000;-0.0056255986
974.0000000000;-0.0055814427
974.5000000000;-0.0057567875
975.0000000000;-0.0059744455
975.5000000000;-0.0056966785
976.0000000000;-0.0058750543
976.5000000000;-0.0067883031
977.0000000000;-0.0069114571
977.5000000000;-0.0061572357
978.0000000000;-0.0053838920
978.5000000000;-0.0056280671
979.0000000000;-0.0063207336
979.5000000000;-0.0063580545
980.0000000000;-0.0061215512
980.5000000000;-0.0062049176
981.0000000000;-0.0067999680
981.5000000000;-0.0067997403
982.0000000000;-0.0062715905
982.5000000000;-0.0064575127
983.0000000000;-0.0063763685
983.5000000000;-0.0058202846
984.0000000000;-0.0063874344
984.5000000000;-0.0074174525
985.0000000000;-0.0077693840
985.5000000000;-0.0074273217
986.0000000000;-0.0071990597
986.5000000000;-0.0076605049
987.0000000000;-0.0079583535
987.5000000000;-0.0076649720
988.0000000000;-0.0071115987
988.5000000000;-0.0075104544
989.0000000000;-0.0084970770
989.5000000000;-0.0085397409
990.0000000000;-0.0080865202
990.5000000000;-0.0079268171
991.0000000000;-0.0083533740
991.5000000000;-0.0081586828
992.0000000000;-0.0074234791
992.5000000000;-0.0083882241
993.0000000000;-0.0090944897
993.5000000000;-0.0080077173
994.0000000000;-0.0079494072
994.5000000000;-0.0084129199
995.0000000000;-0.0079631647
995.5000000000;-0.0083402395
996.0000000000;-0.0089077810
996.5000000000;-0.0080746375
997.0000000000;-0.0080070598
997.5000000000;-0.0090561844
998.0000000000;-0.0095113125
998.5000000000;-0.0092813158
999.0000000000;-0.0087634521
999.5000000000;-0.0084449584
1000.0000000000;-0.0090540815
1000.5000000000;-0.0098690605
1001.0000000000;-0.0085605895
1001.5000000000;-0.0078350008
1002.0000000000;-0.0095369900
1002.5000000000;-0.0099018058
1003.0000000000;-0.0097989980
1003.5000000000;-0.0111470483
1004.0000000000;-0.0113312481
1004.5000000000;-0.0104413871
1005.0000000000;-0.0102321189
1005.5000000000;-0.0100961011
1006.0000000000;-0.0098572010
1006.5000000000;-0.0099948738
1007.0000000000;-0.0103925038
1007.5000000000;-0.0109201381
1008.0000000000;-0.0114905136
1008.5000000000;-0.0114679802
1009.0000000000;-0.0106304577
1009.5000000000;-0.0096543748
1010.0000000000;-0.0097266082
1010.5000000000;-0.0110151507
1011.0000000000;-0.0117537258
1011.5000000000;-0.0112805767
1012.0000000000;-0.0103342067
1012.5000000000;-0.0109435953
1013.0000000000;-0.0122198286
1013.5000000000;-0.0122170392
1014.0000000000;-0.0115168737
1014.5000000000;-0.0110753607
1015.0000000000;-0.0114106424
1015.5000000000;-0.0117482878
1016.0000000000;-0.0121456916
1016.5000000000;-0.0132009638
1017.0000000000;-0.0132830041
1017.5000000000;-0.0124296844
1018.0000000000;-0.0126291309
1018.5000000000;-0.0119197741
1019.0000000000;-0.0100890556
1019.5000000000;-0.0108453482
