182.5000000000;8.6366767883
183.0000000000;8.7637462616
183.5000000000;8.2374343872
184.0000000000;7.5153074265
184.5000000000;7.6390352249
185.0000000000;6.9171557426
185.5000000000;4.7228040695
186.0000000000;3.5788321495
186.5000000000;2.7828395367
187.0000000000;1.4842640162
187.5000000000;0.8784899116
188.0000000000;0.6763334274
188.5000000000;0.5019692779
189.0000000000;0.3528319001
189.5000000000;0.2712749541
190.0000000000;0.2257529348
190.5000000000;0.2109288722
191.0000000000;0.1977587342
191.5000000000;0.1697996706
192.0000000000;0.1550704688
192.5000000000;0.1544680744
193.0000000000;0.1432200074
193.5000000000;0.1267107576
194.0000000000;0.1195568591
194.5000000000;0.1154786423
195.0000000000;0.1084463969
195.5000000000;0.0999808460
196.0000000000;0.0948473662
196.5000000000;0.0962885991
197.0000000000;0.0943121016
197.5000000000;0.0821672231
198.0000000000;0.0749972016
198.5000000000;0.0768269449
199.0000000000;0.0757848918
199.5000000000;0.0707988739
200.0000000000;0.0658193976
200.5000000000;0.0601038486
201.0000000000;0.0537422895
201.5000000000;0.0497222841
202.0000000000;0.0475571752
202.5000000000;0.0447637886
203.0000000000;0.0428948142
203.5000000000;0.0433484800
204.0000000000;0.0436685644
204.5000000000;0.0426517799
205.0000000000;0.0413394310
205.5000000000;0.0420302376
206.0000000000;0.0463289842
206.5000000000;0.0496486388
207.0000000000;0.0495630465
207.5000000000;0.0506493226
208.0000000000;0.0527673028
208.5000000000;0.0521595739
209.0000000000;0.0523576140
209.5000000000;0.0560964905
210.0000000000;0.0569333881
210.5000000000;0.0548530854
211.0000000000;0.0574745983
211.5000000000;0.0608776547
212.0000000000;0.0583213307
212.5000000000;0.0541888699
213.0000000000;0.0524569005
213.5000000000;0.0529638119
214.0000000000;0.0547890440
214.5000000000;0.0565103367
215.0000000000;0.0556151979
215.5000000000;0.0511090718
216.0000000000;0.0453078523
216.5000000000;0.0410086028
217.0000000000;0.0405722111
217.5000000000;0.0432106964
218.0000000000;0.0454875901
218.5000000000;0.0403725132
219.0000000000;0.0305422116
219.5000000000;0.0286210496
220.0000000000;0.0317790210
220.5000000000;0.0317171142
221.0000000000;0.0314038955
221.5000000000;0.0333375894
222.0000000000;0.0349141434
222.5000000000;0.0352438726
223.0000000000;0.0351036265
223.5000000000;0.0349163301
224.0000000000;0.0352568962
224.5000000000;0.0373513177
225.0000000000;0.0396275893
225.5000000000;0.0379283316
226.0000000000;0.0364776403
226.5000000000;0.0408355519
227.0000000000;0.0437701344
227.5000000000;0.0418420099
228.0000000000;0.0421121828
228.5000000000;0.0440368243
229.0000000000;0.0426532552
229.5000000000;0.0430630669
230.0000000000;0.0478086025
230.5000000000;0.0475209765
231.0000000000;0.0429796986
231.5000000000;0.0442363098
232.0000000000;0.0480120741
232.5000000000;0.0488599651
233.0000000000;0.0514932163
233.5000000000;0.0553221665
234.0000000000;0.0522523187
234.5000000000;0.0454650968
235.0000000000;0.0427293070
235.5000000000;0.0442888215
236.0000000000;0.0468280949
236.5000000000;0.0448797829
237.0000000000;0.0417120866
237.5000000000;0.0442741364
238.0000000000;0.0450193994
238.5000000000;0.0386095271
239.0000000000;0.0340336114
239.5000000000;0.0350821055
240.0000000000;0.0387295112
240.5000000000;0.0414350629
241.0000000000;0.0411040336
241.5000000000;0.0400739461
242.0000000000;0.0400513820
242.5000000000;0.0407804660
243.0000000000;0.0405853763
243.5000000000;0.0377500616
244.0000000000;0.0337272212
244.5000000000;0.0309502054
245.0000000000;0.0319331624
245.5000000000;0.0352116898
246.0000000000;0.0365515687
246.5000000000;0.0357329100
247.0000000000;0.0344484337
247.5000000000;0.0351852775
248.0000000000;0.0370206684
248.5000000000;0.0354809053
249.0000000000;0.0332299136
249.5000000000;0.0354115739
250.0000000000;0.0407376811
250.5000000000;0.0460080095
251.0000000000;0.0477628782
251.5000000000;0.0475086123
252.0000000000;0.0496717021
252.5000000000;0.0536275543
253.0000000000;0.0566939786
253.5000000000;0.0557413138
254.0000000000;0.0532449931
254.5000000000;0.0558887906
255.0000000000;0.0599160679
255.5000000000;0.0599611811
256.0000000000;0.0597575381
256.5000000000;0.0635086820
257.0000000000;0.0725969747
257.5000000000;0.0764486715
258.0000000000;0.0655300245
258.5000000000;0.0596357584
259.0000000000;0.0689923838
259.5000000000;0.0773025528
260.0000000000;0.0759288967
260.5000000000;0.0657896996
261.0000000000;0.0581735969
261.5000000000;0.0603307933
262.0000000000;0.0647832379
262.5000000000;0.0692933500
263.0000000000;0.0765887201
263.5000000000;0.0783744603
264.0000000000;0.0700736642
264.5000000000;0.0689733699
265.0000000000;0.0778027624
265.5000000000;0.0796575174
266.0000000000;0.0749263391
266.5000000000;0.0723438263
267.0000000000;0.0750543699
267.5000000000;0.0805322975
268.0000000000;0.0805133805
268.5000000000;0.0784983858
269.0000000000;0.0825678557
269.5000000000;0.0820326805
270.0000000000;0.0734558553
270.5000000000;0.0778216869
271.0000000000;0.0895148292
271.5000000000;0.0823898166
272.0000000000;0.0709939450
272.5000000000;0.0754244179
273.0000000000;0.0852703527
273.5000000000;0.0931256860
274.0000000000;0.1007700935
274.5000000000;0.1054635793
275.0000000000;0.1040307805
275.5000000000;0.1024055555
276.0000000000;0.1041547284
276.5000000000;0.1057349518
277.0000000000;0.1071672812
277.5000000000;0.1114285216
278.0000000000;0.1203141063
278.5000000000;0.1318616122
279.0000000000;0.1372153759
279.5000000000;0.1377571523
280.0000000000;0.1441009492
280.5000000000;0.1526416838
281.0000000000;0.1575069427
281.5000000000;0.1649760157
282.0000000000;0.1768395305
282.5000000000;0.1867556870
283.0000000000;0.1935814768
283.5000000000;0.2003212720
284.0000000000;0.2127651125
284.5000000000;0.2289964259
285.0000000000;0.2350044549
285.5000000000;0.2359872609
286.0000000000;0.2481358796
286.5000000000;0.2670941353
287.0000000000;0.2830915749
287.5000000000;0.2897554338
288.0000000000;0.2924830317
288.5000000000;0.3046360910
289.0000000000;0.3237731159
289.5000000000;0.3417825103
290.0000000000;0.3531051278
290.5000000000;0.3576684296
291.0000000000;0.3612349927
291.5000000000;0.3706125617
292.0000000000;0.3878108561
292.5000000000;0.3981081843
293.0000000000;0.3985566795
293.5000000000;0.4067049026
294.0000000000;0.4272637665
294.5000000000;0.4537416101
295.0000000000;0.4723969698
295.5000000000;0.4809416831
296.0000000000;0.4989049733
296.5000000000;0.5255727172
297.0000000000;0.5452861786
297.5000000000;0.5586047769
298.0000000000;0.5727779865
298.5000000000;0.5965510607
299.0000000000;0.6247270107
299.5000000000;0.6413650513
300.0000000000;0.6553567648
300.5000000000;0.6783306003
301.0000000000;0.6974257827
301.5000000000;0.7097551227
302.0000000000;0.7284896970
302.5000000000;0.7459324598
303.0000000000;0.7509764433
303.5000000000;0.7655534148
304.0000000000;0.7976372242
304.5000000000;0.8223735094
305.0000000000;0.8348082900
305.5000000000;0.8450928926
306.0000000000;0.8571843505
306.5000000000;0.8719013929
307.0000000000;0.8880369067
307.5000000000;0.9048023224
308.0000000000;0.9218932986
308.5000000000;0.9388834238
309.0000000000;0.9540567398
309.5000000000;0.9625974298
310.0000000000;0.9706649780
310.5000000000;0.9941939116
311.0000000000;1.0185880661
311.5000000000;1.0235078335
312.0000000000;1.0245163441
312.5000000000;1.0361516476
313.0000000000;1.0593569279
313.5000000000;1.0847227573
314.0000000000;1.1001186371
314.5000000000;1.1086304188
315.0000000000;1.1171088219
315.5000000000;1.1310869455
316.0000000000;1.1478128433
316.5000000000;1.1597794294
317.0000000000;1.1717987061
317.5000000000;1.1888550520
318.0000000000;1.2056412697
318.5000000000;1.2196069956
319.0000000000;1.2325893641
319.5000000000;1.2458777428
320.0000000000;1.2608035803
320.5000000000;1.2795628309
321.0000000000;1.2983224392
321.5000000000;1.3071147203
322.0000000000;1.3147861958
322.5000000000;1.3350691795
323.0000000000;1.3569585085
323.5000000000;1.3723515272
324.0000000000;1.3873980045
324.5000000000;1.4039576054
325.0000000000;1.4201850891
325.5000000000;1.4361166954
326.0000000000;1.4534541368
326.5000000000;1.4755746126
327.0000000000;1.4997366667
327.5000000000;1.5185247660
328.0000000000;1.5302675962
328.5000000000;1.5396099091
329.0000000000;1.5605578423
329.5000000000;1.5911868811
330.0000000000;1.6126292944
330.5000000000;1.6218730211
331.0000000000;1.6264934540
331.5000000000;1.6412596703
332.0000000000;1.6685826778
332.5000000000;1.6936057806
333.0000000000;1.7080602646
333.5000000000;1.7123728991
334.0000000000;1.7226077318
334.5000000000;1.7439852953
335.0000000000;1.7603268623
335.5000000000;1.7726987600
336.0000000000;1.7932004929
336.5000000000;1.8230170012
337.0000000000;1.8524351120
337.5000000000;1.8595689535
338.0000000000;1.8545026779
338.5000000000;1.8677635193
339.0000000000;1.8874614239
339.5000000000;1.9001524448
340.0000000000;1.9233103991
340.5000000000;1.9470328093
341.0000000000;1.9382547140
341.5000000000;1.9258123636
342.0000000000;1.9464322329
342.5000000000;1.9814902544
343.0000000000;2.0074841976
343.5000000000;2.0104155540
344.0000000000;2.0038373470
344.5000000000;2.0060369968
345.0000000000;2.0025172234
345.5000000000;1.9937707186
346.0000000000;2.0083892345
346.5000000000;2.0331368446
347.0000000000;2.0379934311
347.5000000000;2.0399332047
348.0000000000;2.0490572453
348.5000000000;2.0441634655
349.0000000000;2.0336554050
349.5000000000;2.0430495739
350.0000000000;2.0570809841
350.5000000000;2.0564317703
351.0000000000;2.0419411659
351.5000000000;2.0315358639
352.0000000000;2.0479977131
352.5000000000;2.0617773533
353.0000000000;2.0493373871
353.5000000000;2.0518634319
354.0000000000;2.0698497295
354.5000000000;2.0579788685
355.0000000000;2.0411834717
355.5000000000;2.0549290180
356.0000000000;2.0632271767
356.5000000000;2.0518286228
357.0000000000;2.0488259792
357.5000000000;2.0529835224
358.0000000000;2.0510687828
358.5000000000;2.0537898540
359.0000000000;2.0662252903
359.5000000000;2.0732905865
360.0000000000;2.0664811134
360.5000000000;2.0525963306
361.0000000000;2.0515227318
361.5000000000;2.0654020309
362.0000000000;2.0760445595
362.5000000000;2.0784962177
363.0000000000;2.0797369480
363.5000000000;2.0846855640
364.0000000000;2.0957965851
364.5000000000;2.1115264893
365.0000000000;2.1217670441
365.5000000000;2.1151700020
366.0000000000;2.1205670834
366.5000000000;2.1565833092
367.0000000000;2.1735990047
367.5000000000;2.1658115387
368.0000000000;2.1799874306
368.5000000000;2.2066788673
369.0000000000;2.2204654217
369.5000000000;2.2365512848
370.0000000000;2.2625784874
370.5000000000;2.2859945297
371.0000000000;2.3075358868
371.5000000000;2.3341615200
372.0000000000;2.3626563549
372.5000000000;2.3889174461
373.0000000000;2.4115767479
373.5000000000;2.4382040501
374.0000000000;2.4782867432
374.5000000000;2.5224797726
375.0000000000;2.5614085197
375.5000000000;2.5957779884
376.0000000000;2.6308929920
376.5000000000;2.6722700596
377.0000000000;2.7104644775
377.5000000000;2.7425937653
378.0000000000;2.7916576862
378.5000000000;2.8555641174
379.0000000000;2.9075660706
379.5000000000;2.9492149353
380.0000000000;2.9944508076
380.5000000000;3.0525691509
381.0000000000;3.1211535931
381.5000000000;3.1901028156
382.0000000000;3.2610514164
382.5000000000;3.3363020420
383.0000000000;3.4160974026
383.5000000000;3.4963929653
384.0000000000;3.5603899956
384.5000000000;3.6283311844
385.0000000000;3.7266225815
385.5000000000;3.8192825317
386.0000000000;3.8913135529
386.5000000000;3.9732444286
387.0000000000;4.0671815872
387.5000000000;4.1607022285
388.0000000000;4.2605328560
388.5000000000;4.3681092262
389.0000000000;4.4697561264
389.5000000000;4.5764131546
390.0000000000;4.7056756020
390.5000000000;4.8367114067
391.0000000000;4.9540834427
391.5000000000;5.0707702637
392.0000000000;5.1879024506
392.5000000000;5.2973380089
393.0000000000;5.4236321449
393.5000000000;5.5828547478
394.0000000000;5.7330474854
394.5000000000;5.8629989624
395.0000000000;6.0057988167
395.5000000000;6.1611719131
396.0000000000;6.3167262077
396.5000000000;6.4801197052
397.0000000000;6.6430907249
397.5000000000;6.7866992950
398.0000000000;6.9474778175
398.5000000000;7.1501345634
399.0000000000;7.3294200897
399.5000000000;7.4701881409
400.0000000000;7.6230258942
400.5000000000;7.8121361732
401.0000000000;8.0289220810
401.5000000000;8.2214422226
402.0000000000;8.3822546005
402.5000000000;8.5625410080
403.0000000000;8.7694272995
403.5000000000;8.9847965240
404.0000000000;9.1863698959
404.5000000000;9.3679237366
405.0000000000;9.5527238846
405.5000000000;9.7570543289
406.0000000000;9.9838676453
406.5000000000;10.2093219757
407.0000000000;10.4244365692
407.5000000000;10.6424894333
408.0000000000;10.8678951263
408.5000000000;11.0968360901
409.0000000000;11.3226709366
409.5000000000;11.5496568680
410.0000000000;11.7855405807
410.5000000000;12.0247774124
411.0000000000;12.2589826584
411.5000000000;12.4818229675
412.0000000000;12.6923809052
412.5000000000;12.9096946716
413.0000000000;13.1378145218
413.5000000000;13.3798666000
414.0000000000;13.6367492676
414.5000000000;13.8951988220
415.0000000000;14.1392078400
415.5000000000;14.3681697845
416.0000000000;14.6089172363
416.5000000000;14.8618221283
417.0000000000;15.1088666916
417.5000000000;15.3503084183
418.0000000000;15.5908365250
418.5000000000;15.8355274200
419.0000000000;16.0836658478
419.5000000000;16.3267135620
420.0000000000;16.5819301605
420.5000000000;16.8472309113
421.0000000000;17.0870380402
421.5000000000;17.3103046417
422.0000000000;17.5504207611
422.5000000000;17.8143348694
423.0000000000;18.0761585236
423.5000000000;18.2982959747
424.0000000000;18.5167751312
424.5000000000;18.7908973694
425.0000000000;19.0784053802
425.5000000000;19.3283748627
426.0000000000;19.5733547211
426.5000000000;19.8309192657
427.0000000000;20.0727500916
427.5000000000;20.3059139252
428.0000000000;20.5576095581
428.5000000000;20.8156948090
429.0000000000;21.0728435516
429.5000000000;21.3189907074
430.0000000000;21.5601654053
430.5000000000;21.8112049103
431.0000000000;22.0589885712
431.5000000000;22.3012428284
432.0000000000;22.5450458527
432.5000000000;22.7997741699
433.0000000000;23.0639133453
433.5000000000;23.3049640656
434.0000000000;23.5172080994
434.5000000000;23.7517547607
435.0000000000;24.0148429871
435.5000000000;24.2627468109
436.0000000000;24.4954528809
436.5000000000;24.7259826660
437.0000000000;24.9561672211
437.5000000000;25.1908626556
438.0000000000;25.4269905090
438.5000000000;25.6482563019
439.0000000000;25.8650093079
439.5000000000;26.1060543060
440.0000000000;26.3601226807
440.5000000000;26.6038703918
441.0000000000;26.8172130585
441.5000000000;27.0058841705
442.0000000000;27.2291431427
442.5000000000;27.4770946503
443.0000000000;27.6965579987
443.5000000000;27.9037456512
444.0000000000;28.1139717102
444.5000000000;28.3248233795
445.0000000000;28.5346164703
445.5000000000;28.7425155640
446.0000000000;28.9473743439
446.5000000000;29.1518344879
447.0000000000;29.3670558929
447.5000000000;29.5834827423
448.0000000000;29.7812175751
448.5000000000;29.9666824341
449.0000000000;30.1539573669
449.5000000000;30.3557167053
450.0000000000;30.5600147247
450.5000000000;30.7528572083
451.0000000000;30.9550571442
451.5000000000;31.1630783081
452.0000000000;31.3400268555
452.5000000000;31.5040512085
453.0000000000;31.6889667511
453.5000000000;31.8697814941
454.0000000000;32.0423316956
454.5000000000;32.2433967590
455.0000000000;32.4453048706
455.5000000000;32.6037254333
456.0000000000;32.7508316040
456.5000000000;32.9143829346
457.0000000000;33.0879173279
457.5000000000;33.2512626648
458.0000000000;33.3913612366
458.5000000000;33.5384826660
459.0000000000;33.7092514038
459.5000000000;33.8737640381
460.0000000000;34.0257339478
460.5000000000;34.1797485352
461.0000000000;34.3288230896
461.5000000000;34.4665451050
462.0000000000;34.6093597412
462.5000000000;34.7545166016
463.0000000000;34.8798446655
463.5000000000;34.9991569519
464.0000000000;35.1335563660
464.5000000000;35.2763481140
465.0000000000;35.4171028137
465.5000000000;35.5540618896
466.0000000000;35.6838340759
466.5000000000;35.8063316345
467.0000000000;35.9339141846
467.5000000000;36.0586013794
468.0000000000;36.1642265320
468.5000000000;36.2744255066
469.0000000000;36.4112091064
469.5000000000;36.5603332520
470.0000000000;36.6934280396
470.5000000000;36.7900390625
471.0000000000;36.8843612671
471.5000000000;36.9996490479
472.0000000000;37.1083106995
472.5000000000;37.2008895874
473.0000000000;37.2858886719
473.5000000000;37.3746604919
474.0000000000;37.4791831970
474.5000000000;37.5980453491
475.0000000000;37.7107505798
475.5000000000;37.7980537415
476.0000000000;37.8755645752
476.5000000000;37.9609565735
477.0000000000;38.0558395386
477.5000000000;38.1567497253
478.0000000000;38.2540435791
478.5000000000;38.3318023682
479.0000000000;38.3942527771
479.5000000000;38.4760398865
480.0000000000;38.5669364929
480.5000000000;38.6336326599
481.0000000000;38.7016334534
481.5000000000;38.7893257141
482.0000000000;38.8652305603
482.5000000000;38.9233131409
483.0000000000;38.9827270508
483.5000000000;39.0538291931
484.0000000000;39.1322479248
484.5000000000;39.1978187561
485.0000000000;39.2617149353
485.5000000000;39.3288993835
486.0000000000;39.3658714294
486.5000000000;39.3844947815
487.0000000000;39.4395027161
487.5000000000;39.5299034119
488.0000000000;39.5940628052
488.5000000000;39.6463317871
489.0000000000;39.7122077942
489.5000000000;39.7614479065
490.0000000000;39.7956008911
490.5000000000;39.8455047607
491.0000000000;39.9037628174
491.5000000000;39.9550018311
492.0000000000;39.9980239868
492.5000000000;40.0317268372
493.0000000000;40.0565605164
493.5000000000;40.0843696594
494.0000000000;40.1280059814
494.5000000000;40.1906204224
495.0000000000;40.2499809265
495.5000000000;40.2741088867
496.0000000000;40.2875671387
496.5000000000;40.3164100647
497.0000000000;40.3493919373
497.5000000000;40.3788948059
498.0000000000;40.4016914368
498.5000000000;40.4147109985
499.0000000000;40.4233779907
499.5000000000;40.4469108582
500.0000000000;40.4778480530
500.5000000000;40.4894714355
501.0000000000;40.4924507141
501.5000000000;40.5044059753
502.0000000000;40.5283393860
502.5000000000;40.5525779724
503.0000000000;40.5592422485
503.5000000000;40.5669517517
504.0000000000;40.5865936279
504.5000000000;40.5882644653
505.0000000000;40.5736236572
505.5000000000;40.5710411072
506.0000000000;40.5845603943
506.5000000000;40.6018218994
507.0000000000;40.5964698792
507.5000000000;40.5794754028
508.0000000000;40.5835609436
508.5000000000;40.5811767578
509.0000000000;40.5562934875
509.5000000000;40.5514640808
510.0000000000;40.5573463440
510.5000000000;40.5302391052
511.0000000000;40.4968490601
511.5000000000;40.4833908081
512.0000000000;40.4726333618
512.5000000000;40.4562988281
513.0000000000;40.4375724792
513.5000000000;40.4212074280
514.0000000000;40.4051246643
514.5000000000;40.3754920959
515.0000000000;40.3397712708
515.5000000000;40.3181152344
516.0000000000;40.3071365356
516.5000000000;40.2956047058
517.0000000000;40.2722091675
517.5000000000;40.2373619080
518.0000000000;40.1987037659
518.5000000000;40.1579818726
519.0000000000;40.1192359924
519.5000000000;40.0918922424
520.0000000000;40.0688667297
520.5000000000;40.0357284546
521.0000000000;39.9996147156
521.5000000000;39.9666709900
522.0000000000;39.9302749634
522.5000000000;39.8913803101
523.0000000000;39.8558959961
523.5000000000;39.8213081360
524.0000000000;39.7828292847
524.5000000000;39.7374305725
525.0000000000;39.6936683655
525.5000000000;39.6616363525
526.0000000000;39.6283493042
526.5000000000;39.5890541077
527.0000000000;39.5582847595
527.5000000000;39.5289878845
528.0000000000;39.4868850708
528.5000000000;39.4456062317
529.0000000000;39.4124298096
529.5000000000;39.3756980896
530.0000000000;39.3325805664
530.5000000000;39.2882957458
531.0000000000;39.2538871765
531.5000000000;39.2289810181
532.0000000000;39.1974868774
532.5000000000;39.1646537781
533.0000000000;39.1404457092
533.5000000000;39.1073112488
534.0000000000;39.0650291443
534.5000000000;39.0396080017
535.0000000000;39.0180664063
535.5000000000;38.9802894592
536.0000000000;38.9521408081
536.5000000000;38.9409370422
537.0000000000;38.9229354858
537.5000000000;38.8991241455
538.0000000000;38.8779373169
538.5000000000;38.8502845764
539.0000000000;38.8207397461
539.5000000000;38.8095130920
540.0000000000;38.8051605225
540.5000000000;38.7903137207
541.0000000000;38.7733688354
541.5000000000;38.7599105835
542.0000000000;38.7482986450
542.5000000000;38.7409629822
543.0000000000;38.7414398193
543.5000000000;38.7514343262
544.0000000000;38.7610511780
544.5000000000;38.7536849976
545.0000000000;38.7428817749
545.5000000000;38.7452049255
546.0000000000;38.7553596497
546.5000000000;38.7686462402
547.0000000000;38.7835006714
547.5000000000;38.7953453064
548.0000000000;38.8028450012
548.5000000000;38.8138275146
549.0000000000;38.8328094482
549.5000000000;38.8594474792
550.0000000000;38.8900222778
550.5000000000;38.9212379456
551.0000000000;38.9522285461
551.5000000000;38.9857826233
552.0000000000;39.0248870850
552.5000000000;39.0614967346
553.0000000000;39.0925788879
553.5000000000;39.1281509399
554.0000000000;39.1726913452
554.5000000000;39.2251281738
555.0000000000;39.2763442993
555.5000000000;39.3230476379
556.0000000000;39.3771896362
556.5000000000;39.4353942871
557.0000000000;39.4873237610
557.5000000000;39.5436019897
558.0000000000;39.6101264954
558.5000000000;39.6786422729
559.0000000000;39.7490196228
559.5000000000;39.8240432739
560.0000000000;39.9015007019
560.5000000000;39.9794006348
561.0000000000;40.0568122864
561.5000000000;40.1367568970
562.0000000000;40.2219848633
562.5000000000;40.3085823059
563.0000000000;40.3960609436
563.5000000000;40.4891548157
564.0000000000;40.5845375061
564.5000000000;40.6773757935
565.0000000000;40.7726173401
565.5000000000;40.8741455078
566.0000000000;40.9814109802
566.5000000000;41.0935516357
567.0000000000;41.2070732117
567.5000000000;41.3176269531
568.0000000000;41.4239692688
568.5000000000;41.5234603882
569.0000000000;41.6251564026
569.5000000000;41.7316207886
570.0000000000;41.8393898010
570.5000000000;41.9497451782
571.0000000000;42.0556449890
571.5000000000;42.1706619263
572.0000000000;42.2928161621
572.5000000000;42.4364471436
573.0000000000;42.6004028320
573.5000000000;42.7505149841
574.0000000000;42.8948669434
574.5000000000;43.0467834473
575.0000000000;43.1962966919
575.5000000000;43.3376770020
576.0000000000;43.4843750000
576.5000000000;43.6551704407
577.0000000000;43.8405303955
577.5000000000;43.9803123474
578.0000000000;44.0969619751
578.5000000000;44.2603569031
579.0000000000;44.4514579773
579.5000000000;44.6244926453
580.0000000000;44.7707901001
580.5000000000;44.9234733582
581.0000000000;45.1032447815
581.5000000000;45.2747116089
582.0000000000;45.4305343628
582.5000000000;45.6180458069
583.0000000000;45.8380241394
583.5000000000;46.0232734680
584.0000000000;46.1691055298
584.5000000000;46.3136940002
585.0000000000;46.5009918213
585.5000000000;46.7099952698
586.0000000000;46.9011650085
586.5000000000;47.0885772705
587.0000000000;47.2815132141
587.5000000000;47.4708938599
588.0000000000;47.6521110535
588.5000000000;47.8360710144
589.0000000000;48.0337142944
589.5000000000;48.2447814941
590.0000000000;48.4484024048
590.5000000000;48.6430397034
591.0000000000;48.8370285034
591.5000000000;49.0244598389
592.0000000000;49.2153358459
592.5000000000;49.4154319763
593.0000000000;49.6042060852
593.5000000000;49.7915000916
594.0000000000;50.0093688965
594.5000000000;50.2343978882
595.0000000000;50.4261741638
595.5000000000;50.6135978699
596.0000000000;50.8272514343
596.5000000000;51.0455207825
597.0000000000;51.2467269897
597.5000000000;51.4342536926
598.0000000000;51.6401367188
598.5000000000;51.8691596985
599.0000000000;52.0808410645
599.5000000000;52.2783660889
600.0000000000;52.4843215942
600.5000000000;52.6893272400
601.0000000000;52.8840637207
601.5000000000;53.0804100037
602.0000000000;53.2966880798
602.5000000000;53.5314636230
603.0000000000;53.7534942627
603.5000000000;53.9554252625
604.0000000000;54.1632919312
604.5000000000;54.3861083984
605.0000000000;54.6006126404
605.5000000000;54.7997779846
606.0000000000;55.0003852844
606.5000000000;55.2091598511
607.0000000000;55.4136085510
607.5000000000;55.6147499084
608.0000000000;55.8208389282
608.5000000000;56.0313682556
609.0000000000;56.2444305420
609.5000000000;56.4462509155
610.0000000000;56.6384353638
610.5000000000;56.8506240845
611.0000000000;57.0716781616
611.5000000000;57.2753982544
612.0000000000;57.4788589478
612.5000000000;57.6898956299
613.0000000000;57.8911628723
613.5000000000;58.0937080383
614.0000000000;58.3100700378
614.5000000000;58.5143508911
615.0000000000;58.7114906311
615.5000000000;58.9233474731
616.0000000000;59.1299667358
616.5000000000;59.3306274414
617.0000000000;59.5509529114
617.5000000000;59.7681961060
618.0000000000;59.9562988281
618.5000000000;60.1458702087
619.0000000000;60.3512802124
619.5000000000;60.5519447327
620.0000000000;60.7454261780
620.5000000000;60.9483489990
621.0000000000;61.1603431702
621.5000000000;61.3664665222
622.0000000000;61.5575523376
622.5000000000;61.7441749573
623.0000000000;61.9430122375
623.5000000000;62.1513290405
624.0000000000;62.3595237732
624.5000000000;62.5576667786
625.0000000000;62.7554092407
625.5000000000;62.9606666565
626.0000000000;63.1603317261
626.5000000000;63.3475646973
627.0000000000;63.5253906250
627.5000000000;63.7106895447
628.0000000000;63.9121055603
628.5000000000;64.1089553833
629.0000000000;64.2971954346
629.5000000000;64.4880599976
630.0000000000;64.6754837036
630.5000000000;64.8619308472
631.0000000000;65.0652389526
631.5000000000;65.2695236206
632.0000000000;65.4511032104
632.5000000000;65.6235504150
633.0000000000;65.8013610840
633.5000000000;65.9886398315
634.0000000000;66.1794357300
634.5000000000;66.3656539917
635.0000000000;66.5478820801
635.5000000000;66.7244186401
636.0000000000;66.8936767578
636.5000000000;67.0688858032
637.0000000000;67.2563018799
637.5000000000;67.4331741333
638.0000000000;67.6024627686
638.5000000000;67.7875747681
639.0000000000;67.9710083008
639.5000000000;68.1375274658
640.0000000000;68.2999038696
640.5000000000;68.4718704224
641.0000000000;68.6594390869
641.5000000000;68.8382339478
642.0000000000;68.9984893799
642.5000000000;69.1610870361
643.0000000000;69.3312530518
643.5000000000;69.5030212402
644.0000000000;69.6660919189
644.5000000000;69.8242874146
645.0000000000;69.9913024902
645.5000000000;70.1619415283
646.0000000000;70.3275299072
646.5000000000;70.4856262207
647.0000000000;70.6438217163
647.5000000000;70.8129730225
648.0000000000;70.9803009033
648.5000000000;71.1360855103
649.0000000000;71.2897796631
649.5000000000;71.4438400269
650.0000000000;71.5957870483
650.5000000000;71.7484893799
651.0000000000;71.9031982422
651.5000000000;72.0580368042
652.0000000000;72.2092132568
652.5000000000;72.3562927246
653.0000000000;72.5098571777
653.5000000000;72.6714630127
654.0000000000;72.8249816895
654.5000000000;72.9986953735
655.0000000000;73.2364807129
655.5000000000;73.3221893311
656.0000000000;73.2933120728
656.5000000000;73.2501831055
657.0000000000;73.3267593384
657.5000000000;73.7076339722
658.0000000000;73.9917144775
658.5000000000;74.1092910767
659.0000000000;74.2570724487
659.5000000000;74.4260559082
660.0000000000;74.5781860352
660.5000000000;74.7104721069
661.0000000000;74.8380584717
661.5000000000;74.9774169922
662.0000000000;75.1267852783
662.5000000000;75.2734832764
663.0000000000;75.4013824463
663.5000000000;75.5210647583
664.0000000000;75.6490783691
664.5000000000;75.7908325195
665.0000000000;75.9322280884
665.5000000000;76.0546722412
666.0000000000;76.1770782471
666.5000000000;76.3125839233
667.0000000000;76.4491271973
667.5000000000;76.5848388672
668.0000000000;76.7224502563
668.5000000000;76.8502044678
669.0000000000;76.9689254761
669.5000000000;77.0958709717
670.0000000000;77.2244796753
670.5000000000;77.3450469971
671.0000000000;77.4654083252
671.5000000000;77.5878524780
672.0000000000;77.7089614868
672.5000000000;77.8287658691
673.0000000000;77.9470825195
673.5000000000;78.0619812012
674.0000000000;78.1806869507
674.5000000000;78.3102035522
675.0000000000;78.4314270020
675.5000000000;78.5379028320
676.0000000000;78.6472854614
676.5000000000;78.7611846924
677.0000000000;78.8762893677
677.5000000000;78.9999847412
678.0000000000;79.1242523193
678.5000000000;79.2305908203
679.0000000000;79.3322296143
679.5000000000;79.4415817261
680.0000000000;79.5497817993
680.5000000000;79.6519165039
681.0000000000;79.7496566772
681.5000000000;79.8599929810
682.0000000000;79.9820785522
682.5000000000;80.0862960815
683.0000000000;80.1865539551
683.5000000000;80.3019790649
684.0000000000;80.3930892944
684.5000000000;80.4629669189
685.0000000000;80.5620193481
685.5000000000;80.6734848022
686.0000000000;80.7725219727
686.5000000000;80.8727722168
687.0000000000;80.9774703979
687.5000000000;81.0801239014
688.0000000000;81.1808853149
688.5000000000;81.2781066895
689.0000000000;81.3653106689
689.5000000000;81.4551467896
690.0000000000;81.5608596802
690.5000000000;81.6579895020
691.0000000000;81.7387313843
691.5000000000;81.8222961426
692.0000000000;81.9157943726
692.5000000000;82.0150146484
693.0000000000;82.1039886475
693.5000000000;82.1880722046
694.0000000000;82.2863769531
694.5000000000;82.3802032471
695.0000000000;82.4591598511
695.5000000000;82.5479354858
696.0000000000;82.6393737793
696.5000000000;82.7129669189
697.0000000000;82.7850570679
697.5000000000;82.8692779541
698.0000000000;82.9645996094
698.5000000000;83.0598983765
699.0000000000;83.1437759399
699.5000000000;83.2193450928
700.0000000000;83.2957000732
700.5000000000;83.3812255859
701.0000000000;83.4696197510
701.5000000000;83.5535430908
702.0000000000;83.6311721802
702.5000000000;83.7048873901
703.0000000000;83.7799530029
703.5000000000;83.8581542969
704.0000000000;83.9381408691
704.5000000000;84.0176925659
705.0000000000;84.0989151001
705.5000000000;84.1778869629
706.0000000000;84.2330627441
706.5000000000;84.2780838013
707.0000000000;84.3491973877
707.5000000000;84.4308624268
708.0000000000;84.5061340332
708.5000000000;84.5808258057
709.0000000000;84.6562728882
709.5000000000;84.7303390503
710.0000000000;84.7989349365
710.5000000000;84.8674240112
711.0000000000;84.9499130249
711.5000000000;85.0274505615
712.0000000000;85.0825805664
712.5000000000;85.1356201172
713.0000000000;85.1953964233
713.5000000000;85.2578125000
714.0000000000;85.3232955933
714.5000000000;85.3912353516
715.0000000000;85.4565963745
715.5000000000;85.5201797485
716.0000000000;85.5867156982
716.5000000000;85.6568069458
717.0000000000;85.7253036499
717.5000000000;85.7851181030
718.0000000000;85.8435134888
718.5000000000;85.9056091309
719.0000000000;85.9606857300
719.5000000000;86.0174789429
720.0000000000;86.0922546387
720.5000000000;86.1606674194
721.0000000000;86.2109603882
721.5000000000;86.2642898560
722.0000000000;86.3245697021
722.5000000000;86.3849716187
723.0000000000;86.4376068115
723.5000000000;86.4845809937
724.0000000000;86.5372543335
724.5000000000;86.5942687988
725.0000000000;86.6493453979
725.5000000000;86.6983261108
726.0000000000;86.7474365234
726.5000000000;86.8054351807
727.0000000000;86.8630905151
727.5000000000;86.9159317017
728.0000000000;86.9712371826
728.5000000000;87.0245590210
729.0000000000;87.0708847046
729.5000000000;87.1181411743
730.0000000000;87.1670761108
730.5000000000;87.2117004395
731.0000000000;87.2559661865
731.5000000000;87.3064575195
732.0000000000;87.3664169312
732.5000000000;87.4235305786
733.0000000000;87.4651565552
733.5000000000;87.5085067749
734.0000000000;87.5608444214
734.5000000000;87.6122360229
735.0000000000;87.6516647339
735.5000000000;87.6830520630
736.0000000000;87.7384872437
736.5000000000;87.8066482544
737.0000000000;87.8524780273
737.5000000000;87.8925170898
738.0000000000;87.9415969849
738.5000000000;87.9911880493
739.0000000000;88.0325012207
739.5000000000;88.0634689331
740.0000000000;88.0942993164
740.5000000000;88.1363677979
741.0000000000;88.1954650879
741.5000000000;88.2511901855
742.0000000000;88.2890090942
742.5000000000;88.3220977783
743.0000000000;88.3647460938
743.5000000000;88.4197158813
744.0000000000;88.4586181641
744.5000000000;88.4817276001
745.0000000000;88.5223999023
745.5000000000;88.5736846924
746.0000000000;88.6166610718
746.5000000000;88.6458206177
747.0000000000;88.6732330322
747.5000000000;88.7141342163
748.0000000000;88.7501373291
748.5000000000;88.7798919678
749.0000000000;88.8302383423
749.5000000000;88.8774795532
750.0000000000;88.8971023560
750.5000000000;88.9256896973
751.0000000000;88.9714660645
751.5000000000;89.0137100220
752.0000000000;89.0579223633
752.5000000000;89.0985641479
753.0000000000;89.1038742065
753.5000000000;89.1070327759
754.0000000000;89.1531524658
754.5000000000;89.2078170776
755.0000000000;89.2532424927
755.5000000000;89.3004760742
756.0000000000;89.3295059204
756.5000000000;89.3329086304
757.0000000000;89.3474273682
757.5000000000;89.3845291138
758.0000000000;89.4314575195
758.5000000000;89.4635696411
759.0000000000;89.4834060669
759.5000000000;89.5231170654
760.0000000000;89.5698165894
760.5000000000;89.6046447754
761.0000000000;89.6391830444
761.5000000000;89.6831436157
762.0000000000;89.7366943359
762.5000000000;89.7744598389
763.0000000000;89.7887268066
763.5000000000;89.8072814941
764.0000000000;89.8402099609
764.5000000000;89.8808975220
765.0000000000;89.9106674194
765.5000000000;89.9402084351
766.0000000000;89.9962005615
766.5000000000;90.0491714478
767.0000000000;90.0758438110
767.5000000000;90.0908889771
768.0000000000;90.0989913940
768.5000000000;90.1042327881
769.0000000000;90.1289672852
769.5000000000;90.1762771606
770.0000000000;90.2284698486
770.5000000000;90.2759170532
771.0000000000;90.3140029907
771.5000000000;90.3455581665
772.0000000000;90.3832855225
772.5000000000;90.4331970215
773.0000000000;90.4663009644
773.5000000000;90.4784469604
774.0000000000;90.4962692261
774.5000000000;90.5219650269
775.0000000000;90.5546646118
775.5000000000;90.6051788330
776.0000000000;90.6482543945
776.5000000000;90.6529464722
777.0000000000;90.6630783081
777.5000000000;90.6972579956
778.0000000000;90.7249832153
778.5000000000;90.7421569824
779.0000000000;90.7547149658
779.5000000000;90.7634277344
780.0000000000;90.7835464478
780.5000000000;90.8283996582
781.0000000000;90.8549346924
781.5000000000;90.8571166992
782.0000000000;90.8901443481
782.5000000000;90.9339294434
783.0000000000;90.9552993774
783.5000000000;90.9790115356
784.0000000000;91.0134048462
784.5000000000;91.0486907959
785.0000000000;91.0845336914
785.5000000000;91.1149215698
786.0000000000;91.1271514893
786.5000000000;91.1344375610
787.0000000000;91.1548461914
787.5000000000;91.1849212646
788.0000000000;91.2110061646
788.5000000000;91.2200012207
789.0000000000;91.2306289673
789.5000000000;91.2559738159
790.0000000000;91.2864913940
790.5000000000;91.3122482300
791.0000000000;91.3307571411
791.5000000000;91.3562545776
792.0000000000;91.3927917480
792.5000000000;91.4313507080
793.0000000000;91.4597854614
793.5000000000;91.4706497192
794.0000000000;91.4672851563
794.5000000000;91.4731140137
795.0000000000;91.5078659058
795.5000000000;91.5526275635
796.0000000000;91.5884323120
796.5000000000;91.6065979004
797.0000000000;91.6204986572
797.5000000000;91.6408386230
798.0000000000;91.6627044678
798.5000000000;91.6822891235
799.0000000000;91.6974411011
799.5000000000;91.7085800171
800.0000000000;91.7205886841
800.5000000000;91.7405242920
801.0000000000;91.7678833008
801.5000000000;91.7936401367
802.0000000000;91.8030471802
802.5000000000;91.8203659058
803.0000000000;91.8683395386
803.5000000000;91.9016876221
804.0000000000;91.9084777832
804.5000000000;91.9169692993
805.0000000000;91.9378051758
805.5000000000;91.9616775513
806.0000000000;91.9626007080
806.5000000000;91.9672470093
807.0000000000;92.0056457520
807.5000000000;92.0314102173
808.0000000000;92.0398101807
808.5000000000;92.0682983398
809.0000000000;92.0928344727
809.5000000000;92.0971298218
810.0000000000;92.1071243286
810.5000000000;92.1260833740
811.0000000000;92.1464538574
811.5000000000;92.1728897095
812.0000000000;92.2099227905
812.5000000000;92.2538757324
813.0000000000;92.2736740112
813.5000000000;92.2627105713
814.0000000000;92.2622375488
814.5000000000;92.2795562744
815.0000000000;92.3030395508
815.5000000000;92.3254623413
816.0000000000;92.3460617065
816.5000000000;92.3673019409
817.0000000000;92.3805618286
817.5000000000;92.3874893188
818.0000000000;92.4067001343
818.5000000000;92.4216384888
819.0000000000;92.4209823608
819.5000000000;92.4524917603
820.0000000000;92.4956970215
820.5000000000;92.4878463745
821.0000000000;92.4800109863
821.5000000000;92.5064926147
822.0000000000;92.5352478027
822.5000000000;92.5600128174
823.0000000000;92.5837249756
823.5000000000;92.5951232910
824.0000000000;92.5979003906
824.5000000000;92.6067886353
825.0000000000;92.6250305176
825.5000000000;92.6470489502
826.0000000000;92.6606140137
826.5000000000;92.6602478027
827.0000000000;92.6555099487
827.5000000000;92.6790542603
828.0000000000;92.7269363403
828.5000000000;92.7687683105
829.0000000000;92.7874679565
829.5000000000;92.7874755859
830.0000000000;92.7936859131
830.5000000000;92.8140411377
831.0000000000;92.8385696411
831.5000000000;92.8403244019
832.0000000000;92.8353576660
832.5000000000;92.8555450439
833.0000000000;92.8802413940
833.5000000000;92.8951187134
834.0000000000;92.9039840698
834.5000000000;92.9033889771
835.0000000000;92.9036712646
835.5000000000;92.9392547607
836.0000000000;92.9722290039
836.5000000000;92.9552078247
837.0000000000;92.9556961060
837.5000000000;92.9921264648
838.0000000000;93.0203170776
838.5000000000;93.0429153442
839.0000000000;93.0655059814
839.5000000000;93.0741424561
840.0000000000;93.0761566162
840.5000000000;93.0867156982
841.0000000000;93.1072769165
841.5000000000;93.1284866333
842.0000000000;93.1382293701
842.5000000000;93.1451339722
843.0000000000;93.1577835083
843.5000000000;93.1743850708
844.0000000000;93.1801147461
844.5000000000;93.1762847900
845.0000000000;93.2090606689
845.5000000000;93.2485351563
846.0000000000;93.2341537476
846.5000000000;93.2317199707
847.0000000000;93.2639083862
847.5000000000;93.2736816406
848.0000000000;93.2854537964
848.5000000000;93.3195266724
849.0000000000;93.3235931396
849.5000000000;93.3111572266
850.0000000000;93.3260192871
850.5000000000;93.3500442505
851.0000000000;93.3664245605
851.5000000000;93.3742980957
852.0000000000;93.3795013428
852.5000000000;93.3843765259
853.0000000000;93.3836669922
853.5000000000;93.3853149414
854.0000000000;93.3972320557
854.5000000000;93.4073638916
855.0000000000;93.4261016846
855.5000000000;93.4697341919
856.0000000000;93.4736557007
856.5000000000;93.4365463257
857.0000000000;93.4616012573
857.5000000000;93.5217514038
858.0000000000;93.5531234741
858.5000000000;93.5553131104
859.0000000000;93.5412826538
859.5000000000;93.5295562744
860.0000000000;93.5457077026
860.5000000000;93.5818634033
861.0000000000;93.5983734131
861.5000000000;93.6103591919
862.0000000000;93.6272277832
862.5000000000;93.6147384644
863.0000000000;93.5959167480
863.5000000000;93.6101531982
864.0000000000;93.6373062134
864.5000000000;93.6600723267
865.0000000000;93.6750411987
865.5000000000;93.6882476807
866.0000000000;93.7026901245
866.5000000000;93.7134780884
867.0000000000;93.7201309204
867.5000000000;93.7265243530
868.0000000000;93.7397232056
868.5000000000;93.7537841797
869.0000000000;93.7593536377
869.5000000000;93.7712936401
870.0000000000;93.7940521240
870.5000000000;93.8128814697
871.0000000000;93.8087844849
871.5000000000;93.7947082520
872.0000000000;93.8318786621
872.5000000000;93.8593902588
873.0000000000;93.8112411499
873.5000000000;93.8119049072
874.0000000000;93.8706893921
874.5000000000;93.8878097534
875.0000000000;93.8817596436
875.5000000000;93.8877868652
876.0000000000;93.9099502563
876.5000000000;93.9161987305
877.0000000000;93.8995285034
877.5000000000;93.9327011108
878.0000000000;93.9778060913
878.5000000000;93.9569473267
879.0000000000;93.9454269409
879.5000000000;93.9692153931
880.0000000000;93.9766235352
880.5000000000;93.9685592651
881.0000000000;93.9767761230
881.5000000000;94.0387191772
882.0000000000;94.0724334717
882.5000000000;94.0158538818
883.0000000000;94.0169143677
883.5000000000;94.0765533447
884.0000000000;94.0841064453
884.5000000000;94.0628128052
885.0000000000;94.0536193848
885.5000000000;94.0699157715
886.0000000000;94.0839920044
886.5000000000;94.0826644897
887.0000000000;94.1039810181
887.5000000000;94.1305084229
888.0000000000;94.1297760010
888.5000000000;94.1326751709
889.0000000000;94.1415328979
889.5000000000;94.1331787109
890.0000000000;94.1390991211
890.5000000000;94.1669006348
891.0000000000;94.1758575439
891.5000000000;94.1788635254
892.0000000000;94.2000885010
892.5000000000;94.2313232422
893.0000000000;94.2486953735
893.5000000000;94.2381439209
894.0000000000;94.2408905029
894.5000000000;94.2628631592
895.0000000000;94.2698364258
895.5000000000;94.2623443604
896.0000000000;94.2554321289
896.5000000000;94.2650909424
897.0000000000;94.2812194824
897.5000000000;94.2899398804
898.0000000000;94.2980728149
898.5000000000;94.3157272339
899.0000000000;94.3436889648
899.5000000000;94.3504714966
900.0000000000;94.3391342163
900.5000000000;94.3466110229
901.0000000000;94.3481521606
901.5000000000;94.3435821533
902.0000000000;94.3908920288
902.5000000000;94.4256515503
903.0000000000;94.3841094971
903.5000000000;94.3568878174
904.0000000000;94.3691787720
904.5000000000;94.3911972046
905.0000000000;94.4406127930
905.5000000000;94.4981307983
906.0000000000;94.5029144287
906.5000000000;94.4722747803
907.0000000000;94.4488067627
907.5000000000;94.4634780884
908.0000000000;94.4967880249
908.5000000000;94.5145721436
909.0000000000;94.5108108521
909.5000000000;94.5121383667
910.0000000000;94.5439834595
910.5000000000;94.5485534668
911.0000000000;94.5168380737
911.5000000000;94.5057296753
912.0000000000;94.5218276978
912.5000000000;94.5563888550
913.0000000000;94.6000976563
913.5000000000;94.5886611938
914.0000000000;94.5122985840
914.5000000000;94.5440597534
915.0000000000;94.6287155151
915.5000000000;94.5998001099
916.0000000000;94.5675582886
916.5000000000;94.5823364258
917.0000000000;94.5810165405
917.5000000000;94.5964050293
918.0000000000;94.6367263794
918.5000000000;94.6306762695
919.0000000000;94.6185531616
919.5000000000;94.6561126709
920.0000000000;94.6964187622
920.5000000000;94.7249603271
921.0000000000;94.7479553223
921.5000000000;94.7297286987
922.0000000000;94.6911773682
922.5000000000;94.7015457153
923.0000000000;94.7310180664
923.5000000000;94.7498397827
924.0000000000;94.7695312500
924.5000000000;94.7611618042
925.0000000000;94.7183151245
925.5000000000;94.7180099487
926.0000000000;94.7555847168
926.5000000000;94.7831802368
927.0000000000;94.8094253540
927.5000000000;94.8097152710
928.0000000000;94.7521820068
928.5000000000;94.7601013184
929.0000000000;94.8452987671
929.5000000000;94.8413467407
930.0000000000;94.8128738403
930.5000000000;94.8457031250
931.0000000000;94.8736343384
931.5000000000;94.8763198853
932.0000000000;94.8737258911
932.5000000000;94.8883438110
933.0000000000;94.8959732056
933.5000000000;94.8651123047
934.0000000000;94.8925476074
934.5000000000;94.9689636230
935.0000000000;94.9554977417
935.5000000000;94.9278488159
936.0000000000;94.9439926147
936.5000000000;94.9107208252
937.0000000000;94.8924560547
937.5000000000;94.9556808472
938.0000000000;94.9690017700
938.5000000000;94.9496994019
939.0000000000;94.9883804321
939.5000000000;94.9848785400
940.0000000000;94.9386520386
940.5000000000;94.9608993530
941.0000000000;94.9984283447
941.5000000000;95.0044403076
942.0000000000;95.0090866089
942.5000000000;94.9930496216
943.0000000000;94.9424362183
943.5000000000;94.9019470215
944.0000000000;94.9061050415
944.5000000000;94.9626922607
945.0000000000;95.0343856812
945.5000000000;95.0841979980
946.0000000000;95.0806427002
946.5000000000;94.9896011353
947.0000000000;94.9205551147
947.5000000000;95.0705566406
948.0000000000;95.1552505493
948.5000000000;95.0212860107
949.0000000000;94.9797897339
949.5000000000;95.0309677124
950.0000000000;95.0573577881
950.5000000000;95.0779266357
951.0000000000;95.0772476196
951.5000000000;95.0432662964
952.0000000000;95.0829544067
952.5000000000;95.1520309448
953.0000000000;95.1041107178
953.5000000000;95.0877685547
954.0000000000;95.1535186768
954.5000000000;95.1423721313
955.0000000000;95.0864868164
955.5000000000;95.0668029785
956.0000000000;95.1005020142
956.5000000000;95.1662979126
957.0000000000;95.2225646973
957.5000000000;95.2270584106
958.0000000000;95.2042770386
958.5000000000;95.2014083862
959.0000000000;95.1762008667
959.5000000000;95.1263656616
960.0000000000;95.0989303589
960.5000000000;95.0983810425
961.0000000000;95.1366653442
961.5000000000;95.2382736206
962.0000000000;95.3329925537
962.5000000000;95.3365783691
963.0000000000;95.2266311646
963.5000000000;95.1467895508
964.0000000000;95.2148513794
964.5000000000;95.2815017700
965.0000000000;95.2777938843
965.5000000000;95.2407455444
966.0000000000;95.2560043335
966.5000000000;95.3184051514
967.0000000000;95.3373489380
967.5000000000;95.2890930176
968.0000000000;95.2003326416
968.5000000000;95.1380538940
969.0000000000;95.1775817871
969.5000000000;95.3116073608
970.0000000000;95.3938140869
970.5000000000;95.3559341431
971.0000000000;95.2505493164
971.5000000000;95.2708282471
972.0000000000;95.3100585938
972.5000000000;95.1808242798
973.0000000000;95.1454010010
973.5000000000;95.1933593750
974.0000000000;95.1006393433
974.5000000000;95.1679534912
975.0000000000;95.4039077759
975.5000000000;95.3809814453
976.0000000000;95.2689971924
976.5000000000;95.2850570679
977.0000000000;95.3491516113
977.5000000000;95.3957595825
978.0000000000;95.3889312744
978.5000000000;95.3234558105
979.0000000000;95.3101959229
979.5000000000;95.4154739380
980.0000000000;95.3932342529
980.5000000000;95.2882232666
981.0000000000;95.3397140503
981.5000000000;95.4176559448
982.0000000000;95.4381332397
982.5000000000;95.4456253052
983.0000000000;95.3884124756
983.5000000000;95.2968597412
984.0000000000;95.3279342651
984.5000000000;95.3887863159
985.0000000000;95.3774032593
985.5000000000;95.3706207275
986.0000000000;95.3355102539
986.5000000000;95.2469024658
987.0000000000;95.2552642822
987.5000000000;95.3573150635
988.0000000000;95.4296951294
988.5000000000;95.3870773315
989.0000000000;95.3348312378
989.5000000000;95.4599609375
990.0000000000;95.5816497803
990.5000000000;95.5582275391
991.0000000000;95.4385833740
991.5000000000;95.4110183716
992.0000000000;95.5123443604
992.5000000000;95.5222167969
993.0000000000;95.5135040283
993.5000000000;95.5761489868
994.0000000000;95.5653076172
994.5000000000;95.4596786499
995.0000000000;95.3405532837
995.5000000000;95.3163146973
996.0000000000;95.3541030884
996.5000000000;95.3707580566
997.0000000000;95.4640731812
997.5000000000;95.5119323730
998.0000000000;95.3033828735
998.5000000000;95.2649993896
999.0000000000;95.5005950928
999.5000000000;95.5941314697
1000.0000000000;95.5367584229
1000.5000000000;95.4399871826
1001.0000000000;95.3640899658
1001.5000000000;95.3754730225
1002.0000000000;95.4478607178
1002.5000000000;95.3992156982
1003.0000000000;95.3375167847
1003.5000000000;95.4126510620
1004.0000000000;95.4607849121
1004.5000000000;95.4047317505
1005.0000000000;95.3102416992
1005.5000000000;95.3662033081
1006.0000000000;95.4119262695
1006.5000000000;95.1804962158
1007.0000000000;95.2791290283
1007.5000000000;95.6922378540
1008.0000000000;95.6580276489
1008.5000000000;95.4439392090
1009.0000000000;95.3687744141
1009.5000000000;95.3517379761
1010.0000000000;95.3364105225
1010.5000000000;95.2704162598
1011.0000000000;95.1135406494
1011.5000000000;95.1782913208
1012.0000000000;95.5363235474
1012.5000000000;95.4370498657
1013.0000000000;95.0719223022
1013.5000000000;95.0572204590
1014.0000000000;95.3221969604
1014.5000000000;95.4255218506
1015.0000000000;95.0478820801
1015.5000000000;94.9351654053
1016.0000000000;95.2473220825
1016.5000000000;95.4390640259
1017.0000000000;95.3501663208
1017.5000000000;95.1464462280
1018.0000000000;95.1492385864
1018.5000000000;95.1713562012
1019.0000000000;95.0716400146
1019.5000000000;95.0117721558
