2.300000000000000000e+02 2.418804761904773670e+00
2.310000000000000000e+02 2.365608201058213123e+00
2.320000000000000000e+02 2.318210317460327019e+00
2.330000000000000000e+02 2.249382539682549975e+00
2.340000000000000000e+02 2.175008201058204804e+00
2.350000000000000000e+02 2.125341269841278802e+00
2.360000000000000000e+02 2.084498412698430059e+00
2.370000000000000000e+02 2.055000793650805235e+00
2.380000000000000000e+02 2.024746825396832151e+00
2.390000000000000000e+02 2.004577513227530972e+00
2.400000000000000000e+02 1.990711111111117759e+00
2.410000000000000000e+02 1.967264285714300343e+00
2.420000000000000000e+02 1.954154232804247160e+00
2.430000000000000000e+02 1.935497619047637841e+00
2.440000000000000000e+02 1.925665079365082022e+00
2.450000000000000000e+02 1.920874867724876367e+00
2.460000000000000000e+02 1.916588888888902886e+00
2.470000000000000000e+02 1.923900264550269412e+00
2.480000000000000000e+02 1.924908730158733761e+00
2.490000000000000000e+02 1.927934126984126806e+00
2.500000000000000000e+02 1.949111904761916092e+00
2.510000000000000000e+02 1.936253968253964786e+00
2.520000000000000000e+02 1.901461904761916344e+00
2.530000000000000000e+02 1.900705555555579851e+00
2.540000000000000000e+02 1.915076190476199258e+00
2.550000000000000000e+02 1.942052645502665653e+00
2.560000000000000000e+02 1.931715873015875218e+00
2.570000000000000000e+02 1.908269047619057801e+00
2.580000000000000000e+02 1.878519312169326438e+00
2.590000000000000000e+02 1.843979365079391641e+00
2.600000000000000000e+02 1.725988888888892347e+00
2.610000000000000000e+02 1.584047354497357674e+00
2.620000000000000000e+02 1.498327777777788583e+00
2.630000000000000000e+02 1.440845238095249670e+00
2.640000000000000000e+02 1.333443650793654456e+00
2.650000000000000000e+02 1.253270634920653492e+00
2.660000000000000000e+02 1.177635714285723223e+00
2.670000000000000000e+02 1.113346031746047515e+00
2.680000000000000000e+02 9.817412698412937289e-01
2.690000000000000000e+02 9.446801587301459913e-01
2.700000000000000000e+02 8.917357142857298413e-01
2.710000000000000000e+02 8.599690476190650079e-01
2.720000000000000000e+02 8.380349206349393398e-01
2.730000000000000000e+02 8.130753968254111896e-01
2.740000000000000000e+02 7.984526455026355052e-01
2.750000000000000000e+02 7.797960317460308488e-01
2.760000000000000000e+02 7.745015873015859142e-01
2.770000000000000000e+02 7.641648148148476594e-01
2.780000000000000000e+02 7.548365079365311203e-01
2.790000000000000000e+02 7.510547619047827084e-01
2.800000000000000000e+02 7.487857142857308190e-01
2.810000000000000000e+02 7.374404761904855832e-01
2.820000000000000000e+02 7.359277777777890606e-01
2.830000000000000000e+02 7.359277777777890606e-01
2.840000000000000000e+02 7.336587301587371712e-01
2.850000000000000000e+02 7.268515873015815032e-01
2.860000000000000000e+02 7.268515873015815032e-01
2.870000000000000000e+02 7.298769841269839853e-01
2.880000000000000000e+02 7.366841269841444273e-01
2.890000000000000000e+02 7.465166666666789297e-01
2.900000000000000000e+02 7.510547619047827084e-01
2.910000000000000000e+02 7.510547619047827084e-01
2.920000000000000000e+02 7.510547619047827084e-01
2.930000000000000000e+02 7.571055555555687988e-01
2.940000000000000000e+02 7.571055555555687988e-01
2.950000000000000000e+02 7.581140211640425841e-01
2.960000000000000000e+02 7.654253968254209894e-01
2.970000000000000000e+02 7.669380952381175121e-01
2.980000000000000000e+02 7.742494708994721586e-01
2.990000000000000000e+02 7.752579365079270701e-01
3.000000000000000000e+02 7.767706349206235927e-01
3.010000000000000000e+02 7.813087301587131606e-01
3.020000000000000000e+02 7.820650793650685273e-01
3.030000000000000000e+02 7.893764550264658064e-01
3.040000000000000000e+02 7.903849206349207179e-01
3.050000000000000000e+02 7.956793650793656525e-01
3.060000000000000000e+02 8.014780423280379873e-01
3.070000000000000000e+02 8.055119047619143657e-01
3.080000000000000000e+02 8.055119047619143657e-01
3.090000000000000000e+02 8.055119047619143657e-01
3.100000000000000000e+02 8.115626984127004562e-01
3.110000000000000000e+02 8.176134920635055314e-01
3.120000000000000000e+02 8.206388888889080135e-01
3.130000000000000000e+02 8.244206349206422146e-01
3.140000000000000000e+02 8.276981481481678893e-01
3.150000000000000000e+02 8.350095238095462946e-01
3.160000000000000000e+02 8.365222222222428172e-01
3.170000000000000000e+02 8.448420634920713601e-01
3.180000000000000000e+02 8.508928571428953092e-01
3.190000000000000000e+02 8.569436507936813996e-01
3.200000000000000000e+02 8.614817460317567566e-01
3.210000000000000000e+02 8.675325396825286361e-01
3.220000000000000000e+02 8.720706349206182040e-01
3.230000000000000000e+02 8.796341269841434496e-01
3.240000000000000000e+02 8.917357142857156305e-01
3.250000000000000000e+02 9.023246031746244844e-01
3.260000000000000000e+02 9.068626984127234891e-01
3.270000000000000000e+02 9.174515873016133582e-01
3.280000000000000000e+02 9.214854497354755258e-01
3.290000000000000000e+02 9.310658730158820617e-01
3.300000000000000000e+02 9.356039682539574187e-01
3.310000000000000000e+02 9.416547619048003526e-01
3.320000000000000000e+02 9.484619047619133880e-01
3.330000000000000000e+02 9.507309523809510665e-01
3.340000000000000000e+02 9.545126984126994785e-01
3.350000000000000000e+02 9.598071428571444130e-01
3.360000000000000000e+02 9.658579365079447143e-01
3.370000000000000000e+02 9.711523809523896489e-01
3.380000000000000000e+02 9.749341269841332869e-01
3.390000000000000000e+02 9.847666666666725632e-01
3.400000000000000000e+02 9.840103174603171965e-01
3.410000000000000000e+02 9.930865079365295278e-01
3.420000000000000000e+02 9.945992063492354873e-01
3.430000000000000000e+02 9.893047619047905528e-01
3.440000000000000000e+02 9.870357142857244526e-01
3.450000000000000000e+02 9.847666666666725632e-01
3.460000000000000000e+02 9.809849206349383621e-01
3.470000000000000000e+02 9.666142857143000811e-01
3.480000000000000000e+02 9.651015873015893476e-01
3.490000000000000000e+02 9.577902116402109423e-01
3.500000000000000000e+02 9.567817460317371570e-01
3.510000000000000000e+02 9.454365079365345537e-01
3.520000000000000000e+02 9.416547619048003526e-01
3.530000000000000000e+02 9.371166666666823630e-01
3.540000000000000000e+02 9.235023809523852378e-01
3.550000000000000000e+02 9.038373015873162331e-01
3.560000000000000000e+02 8.864412698412706959e-01
3.570000000000000000e+02 8.781214285714421530e-01
3.580000000000000000e+02 8.735833333333431483e-01
3.590000000000000000e+02 8.501365079365257316e-01
3.600000000000000000e+02 8.206388888888890287e-01
3.610000000000000000e+02 8.024865079365071097e-01
3.620000000000000000e+02 7.712240740740886613e-01
3.630000000000000000e+02 7.321460317460406486e-01
3.640000000000000000e+02 7.049174603174606091e-01
3.650000000000000000e+02 6.814706349206384184e-01
3.660000000000000000e+02 6.527293650793808411e-01
3.670000000000000000e+02 6.292825396825492135e-01
3.680000000000000000e+02 6.048272486772722223e-01
3.690000000000000000e+02 5.778507936507963905e-01
3.700000000000000000e+02 5.513785714285764916e-01
3.710000000000000000e+02 5.211246031746128438e-01
3.720000000000000000e+02 4.916269841270093366e-01
3.730000000000000000e+02 4.666674603174764679e-01
3.740000000000000000e+02 4.349007936508115790e-01
3.750000000000000000e+02 4.106976190476245847e-01
3.760000000000000000e+02 3.950664021164034811e-01
3.770000000000000000e+02 3.721238095238277310e-01
3.780000000000000000e+02 3.607785714285967060e-01
3.790000000000000000e+02 3.471642857142853700e-01
3.800000000000000000e+02 3.297682539682540437e-01
3.810000000000000000e+02 3.153976190476346919e-01
3.820000000000000000e+02 3.048087301587401043e-01
3.830000000000000000e+02 2.927071428571537126e-01
3.840000000000000000e+02 2.790928571428802907e-01
3.850000000000000000e+02 2.639658730158771505e-01
3.860000000000000000e+02 2.528727513227503887e-01
3.870000000000000000e+02 2.420317460317562563e-01
3.880000000000000000e+02 2.299301587301698646e-01
3.890000000000000000e+02 2.195933862434173989e-01
3.900000000000000000e+02 2.095087301587454931e-01
3.910000000000000000e+02 2.042142857143005585e-01
3.920000000000000000e+02 1.943817460317613099e-01
3.930000000000000000e+02 1.913563492063588001e-01
3.940000000000000000e+02 1.883309523809562902e-01
3.950000000000000000e+02 1.784984126984170416e-01
3.960000000000000000e+02 1.732039682539721070e-01
3.970000000000000000e+02 1.671531746031575949e-01
3.980000000000000000e+02 1.595896825396891927e-01
3.990000000000000000e+02 1.520261904762207905e-01
4.000000000000000000e+02 1.459753968254347001e-01
4.010000000000000000e+02 1.414373015873167105e-01
4.020000000000000000e+02 1.419415343915394201e-01
4.030000000000000000e+02 1.316047619047822081e-01
4.040000000000000000e+02 1.247976190476407510e-01
4.050000000000000000e+02 1.217722222222334949e-01
4.060000000000000000e+02 1.187468253968404497e-01
4.070000000000000000e+02 1.134523809523955151e-01
4.080000000000000000e+02 1.066452380952398471e-01
4.090000000000000000e+02 1.005944444444395458e-01
4.100000000000000000e+02 9.656058201057741985e-02
4.110000000000000000e+02 8.698015873017084232e-02
4.120000000000000000e+02 8.092936507938475188e-02
4.130000000000000000e+02 7.639126984125255149e-02
4.140000000000000000e+02 6.958412698413951603e-02
4.150000000000000000e+02 6.428968253970879232e-02
4.160000000000000000e+02 6.126428571431574710e-02
4.170000000000000000e+02 5.823888888890849103e-02
4.180000000000000000e+02 5.218809523810818973e-02
4.190000000000000000e+02 5.067539682541166712e-02
4.200000000000000000e+02 4.613730158732209929e-02
4.210000000000000000e+02 4.613730158732209929e-02
4.220000000000000000e+02 4.613730158732209929e-02
4.230000000000000000e+02 4.613730158732209929e-02
4.240000000000000000e+02 4.311190476191958248e-02
4.250000000000000000e+02 3.706111111111454193e-02
4.260000000000000000e+02 3.706111111111454193e-02
4.270000000000000000e+02 3.706111111111454193e-02
4.280000000000000000e+02 3.706111111111454193e-02
4.290000000000000000e+02 3.706111111111454193e-02
4.300000000000000000e+02 3.706111111111454193e-02
4.310000000000000000e+02 3.706111111111454193e-02
4.320000000000000000e+02 3.201878306880227149e-02
4.330000000000000000e+02 3.101031746032845149e-02
4.340000000000000000e+02 3.101031746032845149e-02
4.350000000000000000e+02 3.101031746032845149e-02
4.360000000000000000e+02 3.101031746032845149e-02
4.370000000000000000e+02 3.101031746032845149e-02
4.380000000000000000e+02 3.101031746032845149e-02
4.390000000000000000e+02 3.101031746032845149e-02
4.400000000000000000e+02 3.101031746032845149e-02
4.410000000000000000e+02 2.647222222222467281e-02
4.420000000000000000e+02 2.193412698412089412e-02
4.430000000000000000e+02 2.193412698412089412e-02
4.440000000000000000e+02 2.193412698412089412e-02
4.450000000000000000e+02 2.193412698412089412e-02
4.460000000000000000e+02 2.193412698412089412e-02
4.470000000000000000e+02 2.193412698412089412e-02
4.480000000000000000e+02 1.790026455026350050e-02
4.490000000000000000e+02 1.588333333333480368e-02
4.500000000000000000e+02 1.487486772487993034e-02
4.510000000000000000e+02 1.512698412699364781e-02
4.520000000000000000e+02 1.588333333333480368e-02
4.530000000000000000e+02 1.588333333333480368e-02
4.540000000000000000e+02 1.588333333333480368e-02
4.550000000000000000e+02 1.588333333333480368e-02
4.560000000000000000e+02 1.588333333333480368e-02
4.570000000000000000e+02 1.588333333333480368e-02
4.580000000000000000e+02 1.588333333333480368e-02
4.590000000000000000e+02 1.285793650794175846e-02
4.600000000000000000e+02 1.285793650794175846e-02
4.610000000000000000e+02 1.588333333333480368e-02
4.620000000000000000e+02 1.512698412699364781e-02
4.630000000000000000e+02 7.563492063482613048e-03
4.640000000000000000e+02 6.807142857127246316e-03
4.650000000000000000e+02 6.807142857127246316e-03
4.660000000000000000e+02 6.807142857127246316e-03
4.670000000000000000e+02 6.807142857127246316e-03
4.680000000000000000e+02 6.807142857127246316e-03
4.690000000000000000e+02 6.807142857127246316e-03
4.700000000000000000e+02 6.807142857127246316e-03
4.710000000000000000e+02 6.807142857127246316e-03
4.720000000000000000e+02 6.807142857127246316e-03
4.730000000000000000e+02 6.807142857127246316e-03
4.740000000000000000e+02 6.807142857127246316e-03
4.750000000000000000e+02 6.807142857127246316e-03
4.760000000000000000e+02 6.807142857127246316e-03
4.770000000000000000e+02 6.807142857127246316e-03
4.780000000000000000e+02 6.807142857127246316e-03
4.790000000000000000e+02 6.807142857127246316e-03
4.800000000000000000e+02 6.807142857127246316e-03
4.810000000000000000e+02 6.807142857127246316e-03
4.820000000000000000e+02 6.807142857127246316e-03
4.830000000000000000e+02 6.807142857127246316e-03
4.840000000000000000e+02 6.807142857127246316e-03
4.850000000000000000e+02 6.807142857127246316e-03
4.860000000000000000e+02 6.807142857127246316e-03
4.870000000000000000e+02 6.807142857127246316e-03
4.880000000000000000e+02 6.807142857127246316e-03
4.890000000000000000e+02 6.807142857127246316e-03
4.900000000000000000e+02 1.084100529102253498e-02
4.910000000000000000e+02 1.588333333333480368e-02
4.920000000000000000e+02 1.588333333333480368e-02
4.930000000000000000e+02 1.588333333333480368e-02
4.940000000000000000e+02 1.588333333333480368e-02
4.950000000000000000e+02 1.588333333333480368e-02
4.960000000000000000e+02 1.588333333333480368e-02
4.970000000000000000e+02 1.588333333333480368e-02
4.980000000000000000e+02 1.588333333333480368e-02
4.990000000000000000e+02 1.588333333333480368e-02
5.000000000000000000e+02 1.588333333333480368e-02
5.010000000000000000e+02 1.588333333333480368e-02
5.020000000000000000e+02 1.512698412699364781e-02
5.030000000000000000e+02 9.832539682548713245e-03
5.040000000000000000e+02 1.588333333333480368e-02
5.050000000000000000e+02 1.588333333333480368e-02
5.060000000000000000e+02 1.588333333333480368e-02
5.070000000000000000e+02 1.512698412699364781e-02
5.080000000000000000e+02 1.058888888888986912e-02
5.090000000000000000e+02 1.588333333333480368e-02
5.100000000000000000e+02 1.588333333333480368e-02
5.110000000000000000e+02 1.588333333333480368e-02
5.120000000000000000e+02 1.588333333339164710e-02
5.130000000000000000e+02 1.588333333339164710e-02
5.140000000000000000e+02 1.588333333339164710e-02
5.150000000000000000e+02 1.588333333339164710e-02
5.160000000000000000e+02 1.512698412702206952e-02
5.170000000000000000e+02 8.824074074093838163e-03
5.180000000000000000e+02 1.058888888891829083e-02
5.190000000000000000e+02 6.807142857184089735e-03
5.200000000000000000e+02 6.807142857184089735e-03
5.210000000000000000e+02 6.807142857184089735e-03
5.220000000000000000e+02 6.807142857184089735e-03
5.230000000000000000e+02 6.807142857184089735e-03
5.240000000000000000e+02 6.807142857184089735e-03
5.250000000000000000e+02 6.807142857184089735e-03
5.260000000000000000e+02 6.807142857184089735e-03
5.270000000000000000e+02 6.807142857184089735e-03
5.280000000000000000e+02 6.807142857184089735e-03
5.290000000000000000e+02 6.807142857184089735e-03
5.300000000000000000e+02 6.807142857184089735e-03
5.310000000000000000e+02 6.807142857184089735e-03
5.320000000000000000e+02 6.807142857184089735e-03
5.330000000000000000e+02 6.807142857184089735e-03
5.340000000000000000e+02 6.807142857184089735e-03
5.350000000000000000e+02 6.807142857184089735e-03
5.360000000000000000e+02 3.781746031743675289e-03
5.370000000000000000e+02 7.563492063411558775e-04
5.380000000000000000e+02 3.025396825393045219e-03
5.390000000000000000e+02 7.563492063411558775e-04
5.400000000000000000e+02 0.000000000000000000e+00
5.410000000000000000e+02 3.781746031743675289e-03
5.420000000000000000e+02 6.807142857184089735e-03
5.430000000000000000e+02 6.807142857184089735e-03
5.440000000000000000e+02 6.807142857184089735e-03
5.450000000000000000e+02 6.807142857184089735e-03
5.460000000000000000e+02 6.807142857184089735e-03
5.470000000000000000e+02 6.807142857184089735e-03
5.480000000000000000e+02 6.807142857184089735e-03
5.490000000000000000e+02 6.807142857184089735e-03
5.500000000000000000e+02 6.807142857184089735e-03
5.510000000000000000e+02 6.807142857184089735e-03
5.520000000000000000e+02 6.807142857184089735e-03
5.530000000000000000e+02 6.807142857184089735e-03
5.540000000000000000e+02 6.807142857184089735e-03
5.550000000000000000e+02 6.807142857184089735e-03
5.560000000000000000e+02 6.807142857184089735e-03
5.570000000000000000e+02 6.807142857184089735e-03
5.580000000000000000e+02 6.807142857184089735e-03
5.590000000000000000e+02 6.807142857184089735e-03
5.600000000000000000e+02 6.807142857184089735e-03
5.610000000000000000e+02 6.807142857184089735e-03
5.620000000000000000e+02 6.807142857184089735e-03
5.630000000000000000e+02 6.807142857184089735e-03
5.640000000000000000e+02 6.807142857184089735e-03
5.650000000000000000e+02 6.807142857184089735e-03
5.660000000000000000e+02 9.076190476207557367e-03
5.670000000000000000e+02 9.076190476207557367e-03
5.680000000000000000e+02 6.807142857184089735e-03
5.690000000000000000e+02 6.807142857184089735e-03
5.700000000000000000e+02 9.076190476207557367e-03
5.710000000000000000e+02 1.588333333339164710e-02
5.720000000000000000e+02 9.832539682548713245e-03
5.730000000000000000e+02 1.184947089945846167e-02
5.740000000000000000e+02 1.134523809525944671e-02
5.750000000000000000e+02 1.285793650797018017e-02
5.760000000000000000e+02 6.807142857184089735e-03
5.770000000000000000e+02 8.319841269866401490e-03
5.780000000000000000e+02 1.588333333339164710e-02
5.790000000000000000e+02 1.588333333339164710e-02
5.800000000000000000e+02 1.588333333339164710e-02
5.810000000000000000e+02 1.588333333339164710e-02
5.820000000000000000e+02 1.588333333339164710e-02
5.830000000000000000e+02 1.588333333339164710e-02
5.840000000000000000e+02 1.588333333339164710e-02
5.850000000000000000e+02 1.588333333339164710e-02
5.860000000000000000e+02 1.588333333339164710e-02
5.870000000000000000e+02 1.588333333339164710e-02
5.880000000000000000e+02 9.076190476207557367e-03
5.890000000000000000e+02 8.824074074093838163e-03
5.900000000000000000e+02 1.512698412702206952e-02
5.910000000000000000e+02 1.588333333339164710e-02
5.920000000000000000e+02 1.184947089949635844e-02
5.930000000000000000e+02 6.807142857184089735e-03
5.940000000000000000e+02 1.058888888891829083e-02
5.950000000000000000e+02 8.824074074093838163e-03
5.960000000000000000e+02 6.807142857184089735e-03
5.970000000000000000e+02 6.807142857184089735e-03
5.980000000000000000e+02 6.807142857184089735e-03
5.990000000000000000e+02 6.807142857184089735e-03
6.000000000000000000e+02 6.807142857184089735e-03
6.010000000000000000e+02 6.807142857184089735e-03
6.020000000000000000e+02 6.807142857184089735e-03
6.030000000000000000e+02 6.807142857184089735e-03
6.040000000000000000e+02 6.807142857184089735e-03
6.050000000000000000e+02 6.807142857184089735e-03
6.060000000000000000e+02 1.058888888891829083e-02
6.070000000000000000e+02 1.588333333339164710e-02
6.080000000000000000e+02 1.588333333339164710e-02
6.090000000000000000e+02 1.588333333339164710e-02
6.100000000000000000e+02 1.588333333339164710e-02
6.110000000000000000e+02 1.588333333339164710e-02
6.120000000000000000e+02 1.588333333339164710e-02
6.130000000000000000e+02 1.588333333339164710e-02
6.140000000000000000e+02 1.588333333339164710e-02
6.150000000000000000e+02 1.588333333339164710e-02
6.160000000000000000e+02 1.588333333339164710e-02
6.170000000000000000e+02 1.588333333339164710e-02
6.180000000000000000e+02 1.588333333339164710e-02
6.190000000000000000e+02 1.588333333339164710e-02
6.200000000000000000e+02 1.588333333339164710e-02
6.210000000000000000e+02 1.588333333339164710e-02
6.220000000000000000e+02 1.588333333339164710e-02
6.230000000000000000e+02 1.588333333339164710e-02
6.240000000000000000e+02 1.588333333339164710e-02
6.250000000000000000e+02 1.588333333339164710e-02
6.260000000000000000e+02 1.588333333339164710e-02
6.270000000000000000e+02 1.588333333339164710e-02
6.280000000000000000e+02 1.588333333339164710e-02
6.290000000000000000e+02 1.588333333339164710e-02
6.300000000000000000e+02 1.588333333339164710e-02
6.310000000000000000e+02 1.588333333339164710e-02
6.320000000000000000e+02 1.588333333339164710e-02
6.330000000000000000e+02 1.588333333339164710e-02
6.340000000000000000e+02 1.588333333339164710e-02
6.350000000000000000e+02 1.588333333339164710e-02
6.360000000000000000e+02 1.588333333339164710e-02
6.370000000000000000e+02 1.588333333339164710e-02
6.380000000000000000e+02 1.588333333339164710e-02
6.390000000000000000e+02 1.588333333339164710e-02
6.400000000000000000e+02 1.588333333339164710e-02
6.410000000000000000e+02 1.588333333339164710e-02
6.420000000000000000e+02 1.588333333339164710e-02
6.430000000000000000e+02 1.588333333339164710e-02
6.440000000000000000e+02 1.588333333339164710e-02
6.450000000000000000e+02 1.588333333339164710e-02
6.460000000000000000e+02 1.588333333339164710e-02
6.470000000000000000e+02 1.588333333339164710e-02
6.480000000000000000e+02 1.588333333339164710e-02
6.490000000000000000e+02 1.588333333339164710e-02
6.500000000000000000e+02 1.588333333339164710e-02
6.510000000000000000e+02 1.588333333339164710e-02
6.520000000000000000e+02 1.588333333339164710e-02
6.530000000000000000e+02 1.588333333339164710e-02
6.540000000000000000e+02 1.588333333339164710e-02
6.550000000000000000e+02 1.588333333339164710e-02
6.560000000000000000e+02 1.588333333339164710e-02
6.570000000000000000e+02 1.588333333339164710e-02
6.580000000000000000e+02 1.588333333339164710e-02
6.590000000000000000e+02 1.588333333339164710e-02
6.600000000000000000e+02 1.588333333339164710e-02
6.610000000000000000e+02 1.588333333339164710e-02
6.620000000000000000e+02 1.588333333339164710e-02
6.630000000000000000e+02 1.588333333339164710e-02
6.640000000000000000e+02 1.588333333339164710e-02
6.650000000000000000e+02 1.588333333339164710e-02
6.660000000000000000e+02 1.588333333339164710e-02
6.670000000000000000e+02 1.588333333339164710e-02
6.680000000000000000e+02 1.588333333339164710e-02
6.690000000000000000e+02 1.588333333339164710e-02
6.700000000000000000e+02 1.588333333339164710e-02
6.710000000000000000e+02 1.588333333339164710e-02
6.720000000000000000e+02 1.588333333339164710e-02
6.730000000000000000e+02 1.588333333339164710e-02
6.740000000000000000e+02 1.588333333339164710e-02
6.750000000000000000e+02 1.588333333339164710e-02
6.760000000000000000e+02 1.437063492065249193e-02
6.770000000000000000e+02 1.588333333339164710e-02
6.780000000000000000e+02 1.512698412702206952e-02
6.790000000000000000e+02 1.588333333339164710e-02
6.800000000000000000e+02 1.588333333339164710e-02
6.810000000000000000e+02 1.588333333339164710e-02
6.820000000000000000e+02 1.588333333339164710e-02
6.830000000000000000e+02 1.588333333339164710e-02
6.840000000000000000e+02 1.588333333339164710e-02
6.850000000000000000e+02 1.588333333339164710e-02
6.860000000000000000e+02 1.588333333339164710e-02
6.870000000000000000e+02 1.588333333339164710e-02
6.880000000000000000e+02 1.588333333339164710e-02
6.890000000000000000e+02 1.588333333339164710e-02
6.900000000000000000e+02 1.588333333339164710e-02
6.910000000000000000e+02 1.588333333339164710e-02
6.920000000000000000e+02 1.588333333339164710e-02
6.930000000000000000e+02 1.588333333339164710e-02
6.940000000000000000e+02 1.588333333339164710e-02
6.950000000000000000e+02 1.588333333339164710e-02
6.960000000000000000e+02 1.588333333339164710e-02
6.970000000000000000e+02 1.588333333339164710e-02
6.980000000000000000e+02 1.588333333339164710e-02
6.990000000000000000e+02 1.588333333339164710e-02
7.000000000000000000e+02 1.588333333339164710e-02
7.010000000000000000e+02 1.588333333339164710e-02
7.020000000000000000e+02 1.588333333339164710e-02
7.030000000000000000e+02 1.588333333339164710e-02
7.040000000000000000e+02 1.588333333339164710e-02
7.050000000000000000e+02 1.588333333339164710e-02
7.060000000000000000e+02 1.588333333339164710e-02
7.070000000000000000e+02 1.588333333339164710e-02
7.080000000000000000e+02 1.588333333339164710e-02
7.090000000000000000e+02 1.588333333339164710e-02
7.100000000000000000e+02 1.588333333339164710e-02
7.110000000000000000e+02 1.588333333339164710e-02
7.120000000000000000e+02 1.588333333339164710e-02
7.130000000000000000e+02 1.588333333339164710e-02
7.140000000000000000e+02 1.588333333339164710e-02
7.150000000000000000e+02 1.588333333339164710e-02
7.160000000000000000e+02 1.588333333339164710e-02
7.170000000000000000e+02 1.588333333339164710e-02
7.180000000000000000e+02 1.588333333339164710e-02
7.190000000000000000e+02 1.588333333339164710e-02
7.200000000000000000e+02 1.588333333339164710e-02
7.210000000000000000e+02 1.512698412702206952e-02
7.220000000000000000e+02 1.588333333339164710e-02
7.230000000000000000e+02 1.588333333339164710e-02
7.240000000000000000e+02 1.588333333339164710e-02
7.250000000000000000e+02 1.588333333339164710e-02
7.260000000000000000e+02 1.588333333339164710e-02
7.270000000000000000e+02 1.588333333339164710e-02
7.280000000000000000e+02 1.588333333339164710e-02
7.290000000000000000e+02 1.588333333339164710e-02
7.300000000000000000e+02 1.588333333339164710e-02
7.310000000000000000e+02 1.588333333339164710e-02
7.320000000000000000e+02 1.588333333339164710e-02
7.330000000000000000e+02 1.588333333339164710e-02
7.340000000000000000e+02 1.588333333339164710e-02
7.350000000000000000e+02 1.588333333339164710e-02
7.360000000000000000e+02 1.588333333339164710e-02
7.370000000000000000e+02 1.588333333339164710e-02
7.380000000000000000e+02 1.588333333339164710e-02
7.390000000000000000e+02 1.588333333339164710e-02
7.400000000000000000e+02 1.588333333339164710e-02
7.410000000000000000e+02 1.588333333339164710e-02
7.420000000000000000e+02 1.588333333339164710e-02
7.430000000000000000e+02 1.588333333339164710e-02
7.440000000000000000e+02 1.588333333339164710e-02
7.450000000000000000e+02 1.588333333339164710e-02
7.460000000000000000e+02 1.588333333339164710e-02
7.470000000000000000e+02 1.588333333339164710e-02
7.480000000000000000e+02 1.588333333339164710e-02
7.490000000000000000e+02 1.588333333339164710e-02
7.500000000000000000e+02 1.588333333339164710e-02
7.510000000000000000e+02 1.588333333339164710e-02
7.520000000000000000e+02 1.689179894184652045e-02
7.530000000000000000e+02 2.193412698412089412e-02
7.540000000000000000e+02 1.815238095241511473e-02
7.550000000000000000e+02 2.193412698412089412e-02
7.560000000000000000e+02 1.739603174607395886e-02
7.570000000000000000e+02 1.890873015875627061e-02
7.580000000000000000e+02 1.588333333339164710e-02
7.590000000000000000e+02 1.588333333339164710e-02
7.600000000000000000e+02 1.890873015875627061e-02
7.610000000000000000e+02 2.193412698412089412e-02
7.620000000000000000e+02 1.815238095241511473e-02
7.630000000000000000e+02 1.588333333339164710e-02
7.640000000000000000e+02 2.571587301588351693e-02
7.650000000000000000e+02 1.739603174607395886e-02
7.660000000000000000e+02 1.991719576724904073e-02
7.670000000000000000e+02 2.344682539686004930e-02
7.680000000000000000e+02 1.588333333339164710e-02
7.690000000000000000e+02 2.344682539686004930e-02
7.700000000000000000e+02 2.344682539686004930e-02
7.710000000000000000e+02 2.495952380956130770e-02
7.720000000000000000e+02 1.966507936509742649e-02
7.730000000000000000e+02 1.588333333339164710e-02
7.740000000000000000e+02 1.588333333339164710e-02
7.750000000000000000e+02 1.588333333339164710e-02
7.760000000000000000e+02 1.588333333339164710e-02
7.770000000000000000e+02 1.588333333339164710e-02
7.780000000000000000e+02 1.588333333339164710e-02
7.790000000000000000e+02 1.588333333339164710e-02
7.800000000000000000e+02 1.588333333339164710e-02
7.810000000000000000e+02 1.588333333339164710e-02
7.820000000000000000e+02 1.588333333339164710e-02
7.830000000000000000e+02 1.588333333339164710e-02
7.840000000000000000e+02 1.588333333339164710e-02
7.850000000000000000e+02 1.588333333339164710e-02
7.860000000000000000e+02 1.588333333339164710e-02
7.870000000000000000e+02 1.588333333339164710e-02
7.880000000000000000e+02 1.588333333339164710e-02
7.890000000000000000e+02 1.588333333339164710e-02
