# UV-Vis Spectrum
# X-Axis:  Wavelength (nm)
# Y-Axis:  &epsilon;
# Y-Axis2: Oscillator Strength

# Peak information
#                  X                   Y                  Y2
#    4653.9737078057        0.0000133792     1893.0869376912
#     803.5835717359        0.0003986244    56403.1888943183
#     598.1781599521        0.0024431759   345696.1630628093
#     495.0912907207        0.0027134696   383941.2634386843
#     415.7232453016        0.0005270143    74569.6635647003
#     405.2950526029        0.0009312250   131763.2964752904
#     394.5896942818        0.0292536155  4139228.2155286032
#     359.7574347295        0.0717457163 10151630.4260114208
#     351.7313628742        0.0019978682   282687.5308311917
#     347.7847611046        0.0002007682    28407.6143663749
#     345.2810098767        0.0043087312   609662.1430594062
#     342.4523310087        0.0028618076   404930.2866274987
#     334.4585206810        0.0032860212   464954.2109341149
#     330.2644616444        0.0013215152   186987.2511855982
#     323.0980470233        0.0009100483   128766.9065877679
#     319.6526399219        0.0011220772   158767.8492718550
#     317.1605722058        0.0057152989   808683.8556163576
#     315.7320219991        0.0005229295    73991.6869180075
#     306.5757634477        0.0070793852  1001694.6807866961
#     300.4107023272        0.0059134501   836721.1680987322
#     299.4236145330        0.0032876247   465181.1025331252
#     296.5201875315        0.0000548119     7755.5890306437
#     295.9616247490        0.0006384539    90337.7718352564
#     292.9361755666        0.0001488654    21063.6470154176
#     289.6585722611        0.0029234538   413652.8789165819

# Spectra
#                  X                   Y               DY/DX
      200.0000000000        0.0000000135        0.0000000000
      201.0000000000        0.0000000282        0.0000000000
      202.0000000000        0.0000000580        0.0000000000
      203.0000000000        0.0000001172        0.0000000000
      204.0000000000        0.0000002324        0.0000000000
      205.0000000000        0.0000004529        0.0000000000
      206.0000000000        0.0000008677        0.0000000000
      207.0000000000        0.0000016353        0.0000000000
      208.0000000000        0.0000030324        0.0000000000
      209.0000000000        0.0000055352        0.0000000000
      210.0000000000        0.0000099490        0.0000000000
      211.0000000000        0.0000176157        0.0000000000
      212.0000000000        0.0000307361        0.0000000000
      213.0000000000        0.0000528664        0.0000000000
      214.0000000000        0.0000896686        0.0000000000
      215.0000000000        0.0001500296        0.0000000000
      216.0000000000        0.0002477023        0.0000000001
      217.0000000000        0.0004036804        0.0000000003
      218.0000000000        0.0006495816        0.0000000008
      219.0000000000        0.0010324027        0.0000000019
      220.0000000000        0.0016211057        0.0000000046
      221.0000000000        0.0025156166        0.0000000110
      222.0000000000        0.0038589532        0.0000000254
      223.0000000000        0.0058533493        0.0000000576
      224.0000000000        0.0087814090        0.0000001272
      225.0000000000        0.0130334931        0.0000002746
      226.0000000000        0.0191427141        0.0000005797
      227.0000000000        0.0278290708        0.0000011972
      228.0000000000        0.0400543939        0.0000024197
      229.0000000000        0.0570898670        0.0000047889
      230.0000000000        0.0805979328        0.0000092850
      231.0000000000        0.1127303617        0.0000176448
      232.0000000000        0.1562441379        0.0000328801
      233.0000000000        0.2146365895        0.0000601070
      234.0000000000        0.2923008360        0.0001078408
      235.0000000000        0.3947021402        0.0001899740
      236.0000000000        0.5285751247        0.0003287303
      237.0000000000        0.7021410486        0.0005589831
      238.0000000000        0.9253434387        0.0009344277
      239.0000000000        1.2100993611        0.0015362151
      240.0000000000        1.5705625114        0.0024847657
      241.0000000000        2.0233931467        0.0039555811
      242.0000000000        2.5880287077        0.0061999425
      243.0000000000        3.2869478471        0.0095713982
      244.0000000000        4.1459195352        0.0145588849
      245.0000000000        5.1942280205        0.0218271681
      246.0000000000        6.4648637411        0.0322650019
      247.0000000000        7.9946698581        0.0470409892
      248.0000000000        9.8244339854        0.0676665534
      249.0000000000       11.9989149364        0.0960647235
      250.0000000000       14.5667949550        0.1346426034
      251.0000000000       17.5805489410        0.1863644861
      252.0000000000       21.0962236293        0.2548216336
      253.0000000000       25.1731215220        0.3442938528
      254.0000000000       29.8733865607        0.4597972293
      255.0000000000       35.2614910229        0.6071118336
      256.0000000000       41.4036258541        0.7927829617
      257.0000000000       48.3669995320        1.0240896013
      258.0000000000       56.2190535089        1.3089743719
      259.0000000000       65.0266051940        1.6559302145
      260.0000000000       74.8549322162        2.0738405985
      261.0000000000       85.7668142503        2.5717719382
      262.0000000000       97.8215509026        3.1587192008
      263.0000000000      111.0739759377        3.8433082497
      264.0000000000      125.5734894275        4.6334611586
      265.0000000000      141.3631301395        5.5360334259
      266.0000000000      158.4787106292        6.5564345372
      267.0000000000      176.9480370229        7.6982455267
      268.0000000000      196.7902343864        8.9628489013
      269.0000000000      218.0151968758       10.3490874042
      270.0000000000      240.6231796117       11.8529684790
      271.0000000000      264.6045464515       13.4674308911
      272.0000000000      289.9396846402       15.1821887318
      273.0000000000      316.5990937746       16.9836659780
      274.0000000000      344.5436527224       18.8550319704
      275.0000000000      373.7250641963       20.7763446895
      276.0000000000      404.0864727004       22.7248047087
      277.0000000000      435.5632476451       24.6751183438
      278.0000000000      468.0839196798       26.5999640180
      279.0000000000      501.5712548002       28.4705514207
      280.0000000000      535.9434476499       30.2572589019
      281.0000000000      571.1154127218       31.9303309096
      282.0000000000      607.0001499362       33.4606143496
      283.0000000000      643.5101593770       34.8203106899
      284.0000000000      680.5588788403       35.9837195531
      285.0000000000      718.0621172997       36.9279495110
      286.0000000000      755.9394574329       37.6335728247
      287.0000000000      794.1156009553       38.0852028983
      288.0000000000      832.5216316635       38.2719761401
      289.0000000000      871.0961727399       38.1879235793
      290.0000000000      909.7864169885       37.8322217884
      291.0000000000      948.5490111775       37.2093171674
      292.0000000000      987.3507785097       36.3289222445
      293.0000000000     1026.1692663529       35.2058870873
      294.0000000000     1064.9931096605       33.8599529968
      295.0000000000     1103.8222039346       32.3153991882
      296.0000000000     1142.6676850486       30.6005960063
      297.0000000000     1181.5517166880       28.7474802832
      298.0000000000     1220.5070895176       26.7909696844
      299.0000000000     1259.5766393765       24.7683333113
      300.0000000000     1298.8124947915       22.7185354902
      301.0000000000     1338.2751668207       20.6815686744
      302.0000000000     1378.0324966670       18.6977898510
      303.0000000000     1418.1584785868       16.8072729122
      304.0000000000     1458.7319773488       15.0491872946
      305.0000000000     1499.8353608422       13.4612109546
      306.0000000000     1541.5530693930       12.0789835814
      307.0000000000     1583.9701439131       10.9356039815
      308.0000000000     1627.1707351863       10.0611738871
      309.0000000000     1671.2366164018        9.4823891271
      310.0000000000     1716.2457204970        9.2221781820
      311.0000000000     1762.2707229882        9.2993876237
      312.0000000000     1809.3776897873        9.7285138050
      313.0000000000     1857.6248080472       10.5194803442
      314.0000000000     1907.0612163912       11.6774613883
      315.0000000000     1957.7259490016       13.2027512430
      316.0000000000     2009.6470060003       15.0906816343
      317.0000000000     2062.8405604041       17.3315885250
      318.0000000000     2117.3103097089       19.9108309582
      319.0000000000     2173.0469778906       22.8088647591
      320.0000000000     2230.0279713539       26.0013740397
      321.0000000000     2288.2171901372       29.4594632648
      322.0000000000     2347.5649935319       33.1499121368
      323.0000000000     2408.0083172318       37.0354947343
      324.0000000000     2469.4709372081       41.0753632141
      325.0000000000     2531.8638737457       45.2254949996
      326.0000000000     2595.0859274858       49.4392007811
      327.0000000000     2659.0243379163       53.6676889174
      328.0000000000     2723.5555535500       57.8606800279
      329.0000000000     2788.5461020355       61.9670637872
      330.0000000000     2853.8535476587       65.9355882581
      331.0000000000     2919.3275231213       69.7155706094
      332.0000000000     2984.8108221135       73.2576168358
      333.0000000000     3050.1405390338       76.5143371809
      334.0000000000     3115.1492422329       79.4410434238
      335.0000000000     3179.6661673653       81.9964140485
      336.0000000000     3243.5184178018       84.1431135899
      337.0000000000     3306.5321595795       85.8483531443
      338.0000000000     3368.5337990194       87.0843801265
      339.0000000000     3429.3511319134       87.8288868117
      340.0000000000     3488.8144540508       88.0653289812
      341.0000000000     3546.7576238006       87.7831480268
      342.0000000000     3603.0190684763       86.9778921023
      343.0000000000     3657.4427272552       85.6512342578
      344.0000000000     3709.8789245044       83.8108878927
      345.0000000000     3760.1851684443       81.4704222216
      346.0000000000     3808.2268711629       78.6489827104
      347.0000000000     3853.8779870425       75.3709235281
      348.0000000000     3897.0215676920       71.6653609190
      349.0000000000     3937.5502324457       67.5656579864
      350.0000000000     3975.3665544224       63.1088526432
      351.0000000000     4010.3833629901       58.3350414155
      352.0000000000     4042.5239642811       53.2867323573
      353.0000000000     4071.7222821139       48.0081805519
      354.0000000000     4097.9229223216       42.5447195479
      355.0000000000     4121.0811640443       36.9421016228
      356.0000000000     4141.1628820259       31.2458590146
      357.0000000000     4158.1444043500       25.5006972513
      358.0000000000     4172.0123103753       19.7499304732
      359.0000000000     4182.7631738711       14.0349672412
      360.0000000000     4190.4032565288        8.3948537923
      361.0000000000     4194.9481571221        2.8658800990
      362.0000000000     4196.4224216329       -2.5187475490
      363.0000000000     4194.8591196318       -7.7291653384
      364.0000000000     4190.2993921319      -12.7390415667
      365.0000000000     4182.7919760054      -17.5256980512
      366.0000000000     4172.3927098906      -22.0701655922
      367.0000000000     4159.1640263073      -26.3571769724
      368.0000000000     4143.1744344693      -30.3751020008
      369.0000000000     4124.4979980169      -34.1158299645
      370.0000000000     4103.2138116138      -37.5746055117
      371.0000000000     4079.4054800550      -40.7498244718
      372.0000000000     4053.1606032258      -43.6427964053
      373.0000000000     4024.5702699388      -46.2574807992
      374.0000000000     3993.7285633607      -48.6002037782
      375.0000000000     3960.7320804279      -50.6793620105
      376.0000000000     3925.6794673412      -52.5051201693
      377.0000000000     3888.6709729303      -54.0891078789
      378.0000000000     3849.8080213892      -55.4441215609
      379.0000000000     3809.1928056071      -56.5838360057
      380.0000000000     3766.9279020547      -57.5225298624
      381.0000000000     3723.1159079430      -58.2748285772
      382.0000000000     3677.8591011365      -58.8554676366
      383.0000000000     3631.2591230959      -59.2790783037
      384.0000000000     3583.4166849257      -59.5599973920
      385.0000000000     3534.4312964292      -59.7121020030
      386.0000000000     3484.4010179144      -59.7486695875
      387.0000000000     3433.4222343527      -59.6822631687
      388.0000000000     3381.5894513719      -59.5246411058
      389.0000000000     3328.9951124553      -59.2866903764
      390.0000000000     3275.7294366327      -58.9783820181
      391.0000000000     3221.8802758716      -58.6087471003
      392.0000000000     3167.5329913173      -58.1858713838
      393.0000000000     3112.7703474838      -57.7169066789
      394.0000000000     3057.6724234623      -57.2080968175
      395.0000000000     3002.3165401929      -56.6648161145
      396.0000000000     2946.7772028270      -56.0916181987
      397.0000000000     2891.1260572120      -55.4922931403
      398.0000000000     2835.4318595263      -54.8699308845
      399.0000000000     2779.7604581108      -54.2269891129
      400.0000000000     2724.1747865570      -53.5653637878
      401.0000000000     2668.7348671386      -52.8864607920
      402.0000000000     2613.4978236983      -52.1912672369
      403.0000000000     2558.5179031363      -51.4804211918
      404.0000000000     2503.8465046807      -50.7542787594
      405.0000000000     2449.5322161551      -50.0129776021
      406.0000000000     2395.6208565029      -49.2564961931
      407.0000000000     2342.1555238606      -48.4847082339
      408.0000000000     2289.1766485198      -47.6974318326
      409.0000000000     2236.7220501539      -46.8944731834
      410.0000000000     2184.8269987276      -46.0756646173
      411.0000000000     2133.5242785476      -45.2408970118
      412.0000000000     2082.8442549514      -44.3901466506
      413.0000000000     2032.8149431699      -43.5234967121
      414.0000000000     1983.4620789347      -42.6411536405
      415.0000000000     1934.8091904384      -41.7434587119
      416.0000000000     1886.8776712882      -40.8308951561
      417.0000000000     1839.6868541262      -39.9040912295
      418.0000000000     1793.2540846192      -38.9638196546
      419.0000000000     1747.5947955500      -38.0109938589
      420.0000000000     1702.7225807694      -37.0466614441
      421.0000000000     1658.6492687910      -36.0719953153
      422.0000000000     1615.3849958373      -35.0882828871
      423.0000000000     1572.9382781638      -34.0969137649
      424.0000000000     1531.3160835109      -33.0993662784
      425.0000000000     1490.5239015486      -32.0971932185
      426.0000000000     1450.5658131993      -31.0920070977
      427.0000000000     1411.4445587345      -30.0854652284
      428.0000000000     1373.1616045616      -29.0792548752
      429.0000000000     1335.7172086231      -28.0750787115
      430.0000000000     1299.1104843470      -27.0746407753
      431.0000000000     1263.3394630953      -26.0796330886
      432.0000000000     1228.4011550667      -25.0917230775
      433.0000000000     1194.2916086197      -24.1125418983
      434.0000000000     1161.0059679880      -23.1436737515
      435.0000000000     1128.5385293684      -22.1866462405
      436.0000000000     1096.8827953659      -21.2429218097
      437.0000000000     1066.0315277880      -20.3138902762
      438.0000000000     1035.9767987834      -19.4008624534
      439.0000000000     1006.7100403250      -18.5050648486
      440.0000000000      978.2220920418      -17.6276354040
      441.0000000000      950.5032474061      -16.7696202388
      442.0000000000      923.5432982871      -15.9319713430
      443.0000000000      897.3315778828      -15.1155451646
      444.0000000000      871.8570020471      -14.3211020286
      445.0000000000      847.1081090274      -13.5493063200
      446.0000000000      823.0730976339      -12.8007273646
      447.0000000000      799.7398638605      -12.0758409351
      448.0000000000      777.0960359796      -11.3750313162
      449.0000000000      755.1290081359      -10.6985938583
      450.0000000000      733.8259724619      -10.0467379549
      451.0000000000      713.1739497437       -9.4195903786
      452.0000000000      693.1598186622       -8.8171989160
      453.0000000000      673.7703436379       -8.2395362441
      454.0000000000      654.9922013091       -7.6865039941
      455.0000000000      636.8120056710       -7.1579369546
      456.0000000000      619.2163319070       -6.6536073669
      457.0000000000      602.1917389423       -6.1732292731
      458.0000000000      585.7247907505       -5.7164628792
      459.0000000000      569.8020764447       -5.2829188994
      460.0000000000      554.4102291856       -4.8721628546
      461.0000000000      539.5359439370       -4.4837192971
      462.0000000000      525.1659941036       -4.1170759423
      463.0000000000      511.2872470806       -3.7716876868
      464.0000000000      497.8866787510       -3.4469804990
      465.0000000000      484.9513869611       -3.1423551691
      466.0000000000      472.4686040079       -2.8571909084
      467.0000000000      460.4257081721       -2.5908487910
      468.0000000000      448.8102343287       -2.3426750319
      469.0000000000      437.6098836678       -2.1120040983
      470.0000000000      426.8125325603       -1.8981616524
      471.0000000000      416.4062405981       -1.7004673245
      472.0000000000      406.3792578438       -1.5182373188
      473.0000000000      396.7200313210       -1.3507868521
      474.0000000000      387.4172107764       -1.1974324291
      475.0000000000      378.4596537468       -1.0574939583
      476.0000000000      369.8364299602       -0.9302967113
      477.0000000000      361.5368251035       -0.8151731320
      478.0000000000      353.5503439859       -0.7114644984
      479.0000000000      345.8667131280       -0.6185224443
      480.0000000000      338.4758828066       -0.5357103456
      481.0000000000      331.3680285827       -0.4624045759
      482.0000000000      324.5335523417       -0.3979956381
      483.0000000000      317.9630828733       -0.3418891774
      484.0000000000      311.6474760171       -0.2935068804
      485.0000000000      305.5778144018       -0.2522872664
      486.0000000000      299.7454068014       -0.2176863762
      487.0000000000      294.1417871352       -0.1891783631
      488.0000000000      288.7587131349       -0.1662559917
      489.0000000000      283.5881647016       -0.1484310485
      490.0000000000      278.6223419768       -0.1352346703
      491.0000000000      273.8536631482       -0.1262175935
      492.0000000000      269.2747620114       -0.1209503293
