182.5000000000;0.5016645789
183.0000000000;0.4946632385
183.5000000000;0.5045438409
184.0000000000;0.5269858241
184.5000000000;0.5428533554
185.0000000000;0.5736257434
185.5000000000;0.6339688897
186.0000000000;0.6826184988
186.5000000000;0.7820237279
187.0000000000;0.9894204140
187.5000000000;1.1309235096
188.0000000000;1.1960343122
188.5000000000;1.2653975487
189.0000000000;1.3297935724
189.5000000000;1.3555502892
190.0000000000;1.3554059267
190.5000000000;1.3428204060
191.0000000000;1.3268512487
191.5000000000;1.3140380383
192.0000000000;1.2955859900
192.5000000000;1.2647033930
193.0000000000;1.2346009016
193.5000000000;1.2129120827
194.0000000000;1.1905568838
194.5000000000;1.1667832136
195.0000000000;1.1437075138
195.5000000000;1.1232653856
196.0000000000;1.1064612865
196.5000000000;1.0910007954
197.0000000000;1.0760693550
197.5000000000;1.0623470545
198.0000000000;1.0504720211
198.5000000000;1.0403635502
199.0000000000;1.0311646461
199.5000000000;1.0228388309
200.0000000000;1.0156335831
200.5000000000;1.0089505911
201.0000000000;1.0026309490
201.5000000000;0.9973751307
202.0000000000;0.9932125807
202.5000000000;0.9897265434
203.0000000000;0.9868001342
203.5000000000;0.9844162464
204.0000000000;0.9825749397
204.5000000000;0.9814130068
205.0000000000;0.9811583161
205.5000000000;0.9814065099
206.0000000000;0.9815755486
206.5000000000;0.9819293618
207.0000000000;0.9827236533
207.5000000000;0.9837804437
208.0000000000;0.9849334359
208.5000000000;0.9860575199
209.0000000000;0.9870176315
209.5000000000;0.9877272248
210.0000000000;0.9882236123
210.5000000000;0.9880760312
211.0000000000;0.9864358306
211.5000000000;0.9835016131
212.0000000000;0.9798694253
212.5000000000;0.9756183624
213.0000000000;0.9707828164
213.5000000000;0.9654651880
214.0000000000;0.9596040845
214.5000000000;0.9529033899
215.0000000000;0.9444192648
215.5000000000;0.9337889552
216.0000000000;0.9218751788
216.5000000000;0.9086001515
217.0000000000;0.8932814598
217.5000000000;0.8760914207
218.0000000000;0.8575475216
218.5000000000;0.8383385539
219.0000000000;0.8187663555
219.5000000000;0.7987779975
220.0000000000;0.7785021663
220.5000000000;0.7580422163
221.0000000000;0.7373599410
221.5000000000;0.7165054679
222.0000000000;0.6956318021
222.5000000000;0.6746773124
223.0000000000;0.6535703540
223.5000000000;0.6324413419
224.0000000000;0.6114004850
224.5000000000;0.5904815793
225.0000000000;0.5698367953
225.5000000000;0.5496485829
226.0000000000;0.5298562050
226.5000000000;0.5105172396
227.0000000000;0.4919593334
227.5000000000;0.4741860032
228.0000000000;0.4570075572
228.5000000000;0.4405397773
229.0000000000;0.4249200225
229.5000000000;0.4101226330
230.0000000000;0.3961426914
230.5000000000;0.3829579055
231.0000000000;0.3705272377
231.5000000000;0.3588418067
232.0000000000;0.3478700519
232.5000000000;0.3375378549
233.0000000000;0.3277771473
233.5000000000;0.3185870349
234.0000000000;0.3099969327
234.5000000000;0.3018954396
235.0000000000;0.2941548526
235.5000000000;0.2867526412
236.0000000000;0.2796649933
236.5000000000;0.2728786469
237.0000000000;0.2663082182
237.5000000000;0.2598384023
238.0000000000;0.2534956932
238.5000000000;0.2472905666
239.0000000000;0.2411077768
239.5000000000;0.2349055111
240.0000000000;0.2287194282
240.5000000000;0.2225409746
241.0000000000;0.2163725495
241.5000000000;0.2102295160
242.0000000000;0.2041248530
242.5000000000;0.1981027573
243.0000000000;0.1922253668
243.5000000000;0.1865648627
244.0000000000;0.1811136007
244.5000000000;0.1758939177
245.0000000000;0.1710263789
245.5000000000;0.1665489674
246.0000000000;0.1624487489
246.5000000000;0.1587694585
247.0000000000;0.1555506587
247.5000000000;0.1527420282
248.0000000000;0.1503243297
248.5000000000;0.1483212560
249.0000000000;0.1466564685
249.5000000000;0.1452508718
250.0000000000;0.1442245841
250.5000000000;0.1435858756
251.0000000000;0.1430952251
251.5000000000;0.1427266002
252.0000000000;0.1426053643
252.5000000000;0.1427148432
253.0000000000;0.1429806203
253.5000000000;0.1433153003
254.0000000000;0.1437375993
254.5000000000;0.1443490982
255.0000000000;0.1450656354
255.5000000000;0.1457703263
256.0000000000;0.1465037018
256.5000000000;0.1473197639
257.0000000000;0.1482473314
257.5000000000;0.1492528170
258.0000000000;0.1502796561
258.5000000000;0.1513105035
259.0000000000;0.1523664743
259.5000000000;0.1535137445
260.0000000000;0.1547203362
260.5000000000;0.1558893621
261.0000000000;0.1569920480
261.5000000000;0.1580665857
262.0000000000;0.1592269838
262.5000000000;0.1603871286
263.0000000000;0.1613290757
263.5000000000;0.1622546762
264.0000000000;0.1633779109
264.5000000000;0.1644725204
265.0000000000;0.1654284000
265.5000000000;0.1663520932
266.0000000000;0.1672866493
266.5000000000;0.1682194918
267.0000000000;0.1690775305
267.5000000000;0.1698389202
268.0000000000;0.1705740243
268.5000000000;0.1712573022
269.0000000000;0.1718087047
269.5000000000;0.1722479314
270.0000000000;0.1726047248
270.5000000000;0.1728627831
271.0000000000;0.1729992330
271.5000000000;0.1729922742
272.0000000000;0.1728340387
272.5000000000;0.1725607216
273.0000000000;0.1723082215
273.5000000000;0.1720730811
274.0000000000;0.1716828644
274.5000000000;0.1711332947
275.0000000000;0.1705264747
275.5000000000;0.1699882448
276.0000000000;0.1695101112
276.5000000000;0.1688779891
277.0000000000;0.1681314409
277.5000000000;0.1674641222
278.0000000000;0.1668155789
278.5000000000;0.1660850346
279.0000000000;0.1652701050
279.5000000000;0.1644240171
280.0000000000;0.1636189520
280.5000000000;0.1627603322
281.0000000000;0.1617629677
281.5000000000;0.1607887894
282.0000000000;0.1598887593
282.5000000000;0.1589286774
283.0000000000;0.1579278558
283.5000000000;0.1569884121
284.0000000000;0.1561744064
284.5000000000;0.1554632634
285.0000000000;0.1547061801
285.5000000000;0.1538814604
286.0000000000;0.1530668139
286.5000000000;0.1522928923
287.0000000000;0.1515907496
287.5000000000;0.1510114819
288.0000000000;0.1504636258
288.5000000000;0.1497725546
289.0000000000;0.1490413249
289.5000000000;0.1483973265
290.0000000000;0.1477483213
290.5000000000;0.1471220106
291.0000000000;0.1466822475
291.5000000000;0.1462305933
292.0000000000;0.1455495507
292.5000000000;0.1449752599
293.0000000000;0.1446411461
293.5000000000;0.1442598253
294.0000000000;0.1438433826
294.5000000000;0.1435540468
295.0000000000;0.1432778388
295.5000000000;0.1429265440
296.0000000000;0.1425908953
296.5000000000;0.1423569620
297.0000000000;0.1422636956
297.5000000000;0.1421853453
298.0000000000;0.1420303136
298.5000000000;0.1419065595
299.0000000000;0.1418514401
299.5000000000;0.1418077350
300.0000000000;0.1417327374
300.5000000000;0.1416102052
301.0000000000;0.1414771974
301.5000000000;0.1413881332
302.0000000000;0.1413890123
302.5000000000;0.1413497627
303.0000000000;0.1411323994
303.5000000000;0.1409347206
304.0000000000;0.1408407986
304.5000000000;0.1406465471
305.0000000000;0.1403522491
305.5000000000;0.1400852799
306.0000000000;0.1397975683
306.5000000000;0.1394197345
307.0000000000;0.1389482617
307.5000000000;0.1384175718
308.0000000000;0.1378834695
308.5000000000;0.1373589039
309.0000000000;0.1368017644
309.5000000000;0.1360822171
310.0000000000;0.1352551132
310.5000000000;0.1345617026
311.0000000000;0.1338931173
311.5000000000;0.1330419183
312.0000000000;0.1320937127
312.5000000000;0.1311548054
313.0000000000;0.1302558035
313.5000000000;0.1293426007
314.0000000000;0.1283512264
314.5000000000;0.1273921132
315.0000000000;0.1264722198
315.5000000000;0.1253349632
316.0000000000;0.1240855232
316.5000000000;0.1230632737
317.0000000000;0.1220688373
317.5000000000;0.1208661571
318.0000000000;0.1196007207
318.5000000000;0.1183760613
319.0000000000;0.1171912923
319.5000000000;0.1160325035
320.0000000000;0.1148702279
320.5000000000;0.1136427596
321.0000000000;0.1123690531
321.5000000000;0.1111634821
322.0000000000;0.1100050062
322.5000000000;0.1088043451
323.0000000000;0.1075290293
323.5000000000;0.1062586904
324.0000000000;0.1051992178
324.5000000000;0.1042234153
325.0000000000;0.1030519307
325.5000000000;0.1018609852
326.0000000000;0.1008006781
326.5000000000;0.0997017398
327.0000000000;0.0985571519
327.5000000000;0.0975109637
328.0000000000;0.0965563953
328.5000000000;0.0956383348
329.0000000000;0.0947176591
329.5000000000;0.0938042328
330.0000000000;0.0929516926
330.5000000000;0.0920733660
331.0000000000;0.0911001340
331.5000000000;0.0902349204
332.0000000000;0.0895039290
332.5000000000;0.0886685476
333.0000000000;0.0878396705
333.5000000000;0.0872254968
334.0000000000;0.0866077244
334.5000000000;0.0858918056
335.0000000000;0.0853065550
335.5000000000;0.0847411901
336.0000000000;0.0839537084
336.5000000000;0.0832693651
337.0000000000;0.0828864649
337.5000000000;0.0824594647
338.0000000000;0.0818882436
338.5000000000;0.0813242942
339.0000000000;0.0808775127
339.5000000000;0.0805437714
340.0000000000;0.0801108107
340.5000000000;0.0795690939
341.0000000000;0.0791173726
341.5000000000;0.0787905604
342.0000000000;0.0785113052
342.5000000000;0.0781079382
343.0000000000;0.0776220113
343.5000000000;0.0773263648
344.0000000000;0.0771378800
344.5000000000;0.0768457800
345.0000000000;0.0764701515
345.5000000000;0.0761447549
346.0000000000;0.0760574862
346.5000000000;0.0759899169
347.0000000000;0.0756021217
347.5000000000;0.0751409605
348.0000000000;0.0748592839
348.5000000000;0.0747408718
349.0000000000;0.0746115446
349.5000000000;0.0742740780
350.0000000000;0.0739203840
350.5000000000;0.0737045482
351.0000000000;0.0734507367
351.5000000000;0.0731404573
352.0000000000;0.0729113743
352.5000000000;0.0727627277
353.0000000000;0.0726388395
353.5000000000;0.0724866688
354.0000000000;0.0722887069
354.5000000000;0.0720708296
355.0000000000;0.0718991458
355.5000000000;0.0718079731
356.0000000000;0.0716843605
356.5000000000;0.0714628622
357.0000000000;0.0711857975
357.5000000000;0.0710017607
358.0000000000;0.0710021034
358.5000000000;0.0708475709
359.0000000000;0.0704127923
359.5000000000;0.0701271743
360.0000000000;0.0699936897
360.5000000000;0.0697421879
361.0000000000;0.0694843605
361.5000000000;0.0692653582
362.0000000000;0.0690648258
362.5000000000;0.0688496679
363.0000000000;0.0685915723
363.5000000000;0.0683853701
364.0000000000;0.0682559088
364.5000000000;0.0680077225
365.0000000000;0.0676873997
365.5000000000;0.0675384998
366.0000000000;0.0674537271
366.5000000000;0.0672522858
367.0000000000;0.0669404566
367.5000000000;0.0666078851
368.0000000000;0.0663864762
368.5000000000;0.0661889315
369.0000000000;0.0658857226
369.5000000000;0.0655678511
370.0000000000;0.0653267056
370.5000000000;0.0651783124
371.0000000000;0.0649582595
371.5000000000;0.0645183697
372.0000000000;0.0641723871
372.5000000000;0.0640133917
373.0000000000;0.0636548996
373.5000000000;0.0632066056
374.0000000000;0.0630216748
374.5000000000;0.0628341734
375.0000000000;0.0624430217
375.5000000000;0.0620828196
376.0000000000;0.0617643781
376.5000000000;0.0613423474
377.0000000000;0.0610094070
377.5000000000;0.0608415976
378.0000000000;0.0604232512
378.5000000000;0.0597951375
379.0000000000;0.0594037771
379.5000000000;0.0591082014
380.0000000000;0.0586813688
380.5000000000;0.0583098233
381.0000000000;0.0580154844
381.5000000000;0.0575881116
382.0000000000;0.0571040027
382.5000000000;0.0567090325
383.0000000000;0.0562702306
383.5000000000;0.0557692610
384.0000000000;0.0554115772
384.5000000000;0.0550662391
385.0000000000;0.0545155779
385.5000000000;0.0539616495
386.0000000000;0.0535509065
386.5000000000;0.0532211959
387.0000000000;0.0527851544
387.5000000000;0.0521046594
388.0000000000;0.0514862277
388.5000000000;0.0511053279
389.0000000000;0.0507728644
389.5000000000;0.0503232367
390.0000000000;0.0497056693
390.5000000000;0.0491763689
391.0000000000;0.0488517471
391.5000000000;0.0484357402
392.0000000000;0.0478116237
392.5000000000;0.0470939130
393.0000000000;0.0465690009
393.5000000000;0.0462949090
394.0000000000;0.0458467081
394.5000000000;0.0451881774
395.0000000000;0.0446152315
395.5000000000;0.0441893823
396.0000000000;0.0438323766
396.5000000000;0.0433130749
397.0000000000;0.0426446423
397.5000000000;0.0420711786
398.0000000000;0.0415850207
398.5000000000;0.0411128327
399.0000000000;0.0406966992
399.5000000000;0.0403349847
400.0000000000;0.0399511643
400.5000000000;0.0393536985
401.0000000000;0.0385073125
401.5000000000;0.0380081348
402.0000000000;0.0379433930
402.5000000000;0.0376524366
403.0000000000;0.0370308124
403.5000000000;0.0363229550
404.0000000000;0.0358252041
404.5000000000;0.0355935581
405.0000000000;0.0353203192
405.5000000000;0.0348033421
406.0000000000;0.0340476744
406.5000000000;0.0335451923
407.0000000000;0.0334322006
407.5000000000;0.0331133828
408.0000000000;0.0325335152
408.5000000000;0.0320308357
409.0000000000;0.0316075198
409.5000000000;0.0311819334
410.0000000000;0.0307455268
410.5000000000;0.0303362198
411.0000000000;0.0299928989
411.5000000000;0.0296773650
412.0000000000;0.0293512475
412.5000000000;0.0290093254
413.0000000000;0.0286344383
413.5000000000;0.0281936042
414.0000000000;0.0277654938
414.5000000000;0.0274262670
415.0000000000;0.0271053016
415.5000000000;0.0267975070
416.0000000000;0.0265455320
416.5000000000;0.0263071582
417.0000000000;0.0260181837
417.5000000000;0.0256177504
418.0000000000;0.0251877233
418.5000000000;0.0249118395
419.0000000000;0.0246579181
419.5000000000;0.0242785607
420.0000000000;0.0239593554
420.5000000000;0.0237526763
421.0000000000;0.0235190485
421.5000000000;0.0231992919
422.0000000000;0.0228197407
422.5000000000;0.0225776322
423.0000000000;0.0224495810
423.5000000000;0.0221240576
424.0000000000;0.0217395667
424.5000000000;0.0215455908
425.0000000000;0.0213638637
425.5000000000;0.0210760068
426.0000000000;0.0207616910
426.5000000000;0.0204893723
427.0000000000;0.0203214288
427.5000000000;0.0202033054
428.0000000000;0.0200528447
428.5000000000;0.0198148135
429.0000000000;0.0195314493
429.5000000000;0.0193106029
430.0000000000;0.0191330072
430.5000000000;0.0189576689
431.0000000000;0.0187966730
431.5000000000;0.0186211038
432.0000000000;0.0183904767
432.5000000000;0.0181769934
433.0000000000;0.0180143192
433.5000000000;0.0178159755
434.0000000000;0.0176363550
434.5000000000;0.0175558664
435.0000000000;0.0173980575
435.5000000000;0.0170994420
436.0000000000;0.0169569533
436.5000000000;0.0169394985
437.0000000000;0.0167739447
437.5000000000;0.0165247172
438.0000000000;0.0163379610
438.5000000000;0.0162610300
439.0000000000;0.0162111372
439.5000000000;0.0160401408
440.0000000000;0.0158608072
440.5000000000;0.0157815833
441.0000000000;0.0156610608
441.5000000000;0.0154818762
442.0000000000;0.0153320050
442.5000000000;0.0152290035
443.0000000000;0.0151528008
443.5000000000;0.0149947060
444.0000000000;0.0147764739
444.5000000000;0.0146489888
445.0000000000;0.0145949330
445.5000000000;0.0145303309
446.0000000000;0.0143969152
446.5000000000;0.0142074982
447.0000000000;0.0140447365
447.5000000000;0.0139700724
448.0000000000;0.0139876567
448.5000000000;0.0139513398
449.0000000000;0.0138091892
449.5000000000;0.0136506464
450.0000000000;0.0135207316
450.5000000000;0.0134231513
451.0000000000;0.0133126248
451.5000000000;0.0131990276
452.0000000000;0.0131603600
452.5000000000;0.0131177278
453.0000000000;0.0129667679
453.5000000000;0.0128241191
454.0000000000;0.0127563532
454.5000000000;0.0126952641
455.0000000000;0.0125998016
455.5000000000;0.0124763316
456.0000000000;0.0124203525
456.5000000000;0.0124199428
457.0000000000;0.0123028420
457.5000000000;0.0121336030
458.0000000000;0.0120593794
458.5000000000;0.0119815525
459.0000000000;0.0118591897
459.5000000000;0.0118164737
460.0000000000;0.0118097588
460.5000000000;0.0117200036
461.0000000000;0.0116419643
461.5000000000;0.0116184223
462.0000000000;0.0115216561
462.5000000000;0.0114072952
463.0000000000;0.0113992700
463.5000000000;0.0113212783
464.0000000000;0.0111150714
464.5000000000;0.0110214306
465.0000000000;0.0110516446
465.5000000000;0.0110478830
466.0000000000;0.0109393112
466.5000000000;0.0107745910
467.0000000000;0.0107551571
467.5000000000;0.0108344471
468.0000000000;0.0108153746
468.5000000000;0.0107233543
469.0000000000;0.0106067657
469.5000000000;0.0104525555
470.0000000000;0.0103536025
470.5000000000;0.0104209566
471.0000000000;0.0104508121
471.5000000000;0.0103264796
472.0000000000;0.0102499444
472.5000000000;0.0102235908
473.0000000000;0.0101178773
473.5000000000;0.0100280475
474.0000000000;0.0100300638
474.5000000000;0.0100417892
475.0000000000;0.0099716997
475.5000000000;0.0097861318
476.0000000000;0.0096891848
476.5000000000;0.0097865341
477.0000000000;0.0098589566
477.5000000000;0.0098115457
478.0000000000;0.0096868882
478.5000000000;0.0095379073
479.0000000000;0.0094233742
479.5000000000;0.0094240680
480.0000000000;0.0094618527
480.5000000000;0.0093705840
481.0000000000;0.0092418334
481.5000000000;0.0091841556
482.0000000000;0.0091636451
482.5000000000;0.0091521470
483.0000000000;0.0091329385
483.5000000000;0.0090456996
484.0000000000;0.0089048604
484.5000000000;0.0088867405
485.0000000000;0.0090292888
485.5000000000;0.0091717308
486.0000000000;0.0090990597
486.5000000000;0.0087950733
487.0000000000;0.0085770832
487.5000000000;0.0085584754
488.0000000000;0.0085338550
488.5000000000;0.0084931254
489.0000000000;0.0084808012
489.5000000000;0.0084771477
490.0000000000;0.0084602479
490.5000000000;0.0084189475
491.0000000000;0.0083780438
491.5000000000;0.0083504524
492.0000000000;0.0082983887
492.5000000000;0.0082426965
493.0000000000;0.0082414001
493.5000000000;0.0082499227
494.0000000000;0.0082120523
494.5000000000;0.0081226593
495.0000000000;0.0080415718
495.5000000000;0.0080420254
496.0000000000;0.0079890285
496.5000000000;0.0078330543
497.0000000000;0.0078303395
497.5000000000;0.0079365214
498.0000000000;0.0078781983
498.5000000000;0.0077509163
499.0000000000;0.0077068768
499.5000000000;0.0077429144
500.0000000000;0.0077759880
500.5000000000;0.0077012945
501.0000000000;0.0076125893
501.5000000000;0.0076001389
502.0000000000;0.0076020537
502.5000000000;0.0075783189
503.0000000000;0.0075274268
503.5000000000;0.0074733142
504.0000000000;0.0074290731
504.5000000000;0.0073759686
505.0000000000;0.0073464098
505.5000000000;0.0073866467
506.0000000000;0.0073739081
506.5000000000;0.0072499719
507.0000000000;0.0071848640
507.5000000000;0.0072045950
508.0000000000;0.0072069205
508.5000000000;0.0071723494
509.0000000000;0.0071210419
509.5000000000;0.0070934868
510.0000000000;0.0070707086
510.5000000000;0.0070038391
511.0000000000;0.0069519849
511.5000000000;0.0069656610
512.0000000000;0.0070115803
512.5000000000;0.0070171291
513.0000000000;0.0069178822
513.5000000000;0.0068101492
514.0000000000;0.0067800875
514.5000000000;0.0068008658
515.0000000000;0.0068146745
515.5000000000;0.0067679691
516.0000000000;0.0066970293
516.5000000000;0.0066379528
517.0000000000;0.0065816976
517.5000000000;0.0065450710
518.0000000000;0.0065533086
518.5000000000;0.0065693622
519.0000000000;0.0065604080
519.5000000000;0.0065337392
520.0000000000;0.0065085869
520.5000000000;0.0064972690
521.0000000000;0.0064563714
521.5000000000;0.0063780979
522.0000000000;0.0063345395
522.5000000000;0.0063551348
523.0000000000;0.0064155972
523.5000000000;0.0064087515
524.0000000000;0.0063051046
524.5000000000;0.0062275245
525.0000000000;0.0062132096
525.5000000000;0.0062292893
526.0000000000;0.0062289434
526.5000000000;0.0062028845
527.0000000000;0.0061985026
527.5000000000;0.0062011541
528.0000000000;0.0061670551
528.5000000000;0.0061039175
529.0000000000;0.0060401033
529.5000000000;0.0060107009
530.0000000000;0.0060176509
530.5000000000;0.0060354662
531.0000000000;0.0060128374
531.5000000000;0.0059411149
532.0000000000;0.0058782808
532.5000000000;0.0058731996
533.0000000000;0.0059309956
533.5000000000;0.0059402795
534.0000000000;0.0058787977
534.5000000000;0.0058561382
535.0000000000;0.0058550979
535.5000000000;0.0058223139
536.0000000000;0.0058197668
536.5000000000;0.0058373939
537.0000000000;0.0057687284
537.5000000000;0.0056885495
538.0000000000;0.0056995125
538.5000000000;0.0057094507
539.0000000000;0.0056749238
539.5000000000;0.0056433468
540.0000000000;0.0056155059
540.5000000000;0.0055923951
541.0000000000;0.0056376657
541.5000000000;0.0056917472
542.0000000000;0.0055907355
542.5000000000;0.0054637967
543.0000000000;0.0054660784
543.5000000000;0.0055051744
544.0000000000;0.0055107209
544.5000000000;0.0054840064
545.0000000000;0.0054814387
545.5000000000;0.0055193300
546.0000000000;0.0054759118
546.5000000000;0.0053749396
547.0000000000;0.0053625363
547.5000000000;0.0053733294
548.0000000000;0.0053293258
548.5000000000;0.0052956599
549.0000000000;0.0052962922
549.5000000000;0.0053037736
550.0000000000;0.0052915532
550.5000000000;0.0052560489
551.0000000000;0.0052354154
551.5000000000;0.0052331914
552.0000000000;0.0052260184
552.5000000000;0.0052169291
553.0000000000;0.0052073346
553.5000000000;0.0051822131
554.0000000000;0.0051590833
554.5000000000;0.0051641469
555.0000000000;0.0051535447
555.5000000000;0.0051030493
556.0000000000;0.0050542364
556.5000000000;0.0050317869
557.0000000000;0.0050412333
557.5000000000;0.0050711627
558.0000000000;0.0050920392
558.5000000000;0.0050601857
559.0000000000;0.0050012344
559.5000000000;0.0049680164
560.0000000000;0.0049486393
560.5000000000;0.0049355514
561.0000000000;0.0049444675
561.5000000000;0.0049474747
562.0000000000;0.0049131713
562.5000000000;0.0048816428
563.0000000000;0.0048662145
563.5000000000;0.0048339139
564.0000000000;0.0048051211
564.5000000000;0.0048100869
565.0000000000;0.0048228046
565.5000000000;0.0048172707
566.0000000000;0.0047840797
566.5000000000;0.0047568404
567.0000000000;0.0047666710
567.5000000000;0.0047874642
568.0000000000;0.0047982438
568.5000000000;0.0047911010
569.0000000000;0.0047653154
569.5000000000;0.0047393437
570.0000000000;0.0047579664
570.5000000000;0.0047717192
571.0000000000;0.0046579451
571.5000000000;0.0044690003
572.0000000000;0.0043683634
572.5000000000;0.0044502444
573.0000000000;0.0046213227
573.5000000000;0.0047135679
574.0000000000;0.0046823923
574.5000000000;0.0045736362
575.0000000000;0.0045420341
575.5000000000;0.0045742663
576.0000000000;0.0045537050
576.5000000000;0.0045475313
577.0000000000;0.0045843455
577.5000000000;0.0045623695
578.0000000000;0.0044997367
578.5000000000;0.0044779661
579.0000000000;0.0045223278
579.5000000000;0.0045771045
580.0000000000;0.0045111403
580.5000000000;0.0044237226
581.0000000000;0.0044604312
581.5000000000;0.0044505633
582.0000000000;0.0043532024
582.5000000000;0.0043113963
583.0000000000;0.0043260488
583.5000000000;0.0043403264
584.0000000000;0.0043324395
584.5000000000;0.0043215281
585.0000000000;0.0043458859
585.5000000000;0.0043518888
586.0000000000;0.0042930050
586.5000000000;0.0042497679
587.0000000000;0.0042657219
587.5000000000;0.0043167761
588.0000000000;0.0043371692
588.5000000000;0.0042917836
589.0000000000;0.0042270073
589.5000000000;0.0041829501
590.0000000000;0.0041821110
590.5000000000;0.0041967384
591.0000000000;0.0041894647
591.5000000000;0.0041443193
592.0000000000;0.0041128718
592.5000000000;0.0041550514
593.0000000000;0.0041538812
593.5000000000;0.0040840860
594.0000000000;0.0041139410
594.5000000000;0.0041759806
595.0000000000;0.0041167708
595.5000000000;0.0040637013
596.0000000000;0.0040742648
596.5000000000;0.0040451218
597.0000000000;0.0040023532
597.5000000000;0.0040154685
598.0000000000;0.0040341695
598.5000000000;0.0040234039
599.0000000000;0.0039959447
599.5000000000;0.0039912509
600.0000000000;0.0040221750
600.5000000000;0.0040086741
601.0000000000;0.0039652870
601.5000000000;0.0039894469
602.0000000000;0.0040315865
602.5000000000;0.0040285345
603.0000000000;0.0040111127
603.5000000000;0.0039813952
604.0000000000;0.0039207209
604.5000000000;0.0039024935
605.0000000000;0.0039534476
605.5000000000;0.0039466741
606.0000000000;0.0038991682
606.5000000000;0.0039099664
607.0000000000;0.0039315051
607.5000000000;0.0039245710
608.0000000000;0.0039205407
608.5000000000;0.0039119003
609.0000000000;0.0038794684
609.5000000000;0.0038614576
610.0000000000;0.0038727480
610.5000000000;0.0038847988
611.0000000000;0.0038955917
611.5000000000;0.0039074253
612.0000000000;0.0038957915
612.5000000000;0.0038697778
613.0000000000;0.0038721235
613.5000000000;0.0038801536
614.0000000000;0.0038723499
614.5000000000;0.0038927246
615.0000000000;0.0039129090
615.5000000000;0.0038542876
616.0000000000;0.0037980103
616.5000000000;0.0038130432
617.0000000000;0.0038421380
617.5000000000;0.0038549148
618.0000000000;0.0038512675
618.5000000000;0.0038107708
619.0000000000;0.0037660303
619.5000000000;0.0038267695
620.0000000000;0.0038931468
620.5000000000;0.0038206289
621.0000000000;0.0037685297
621.5000000000;0.0038083217
622.0000000000;0.0038042997
622.5000000000;0.0037615297
623.0000000000;0.0037456106
623.5000000000;0.0037672066
624.0000000000;0.0037940457
624.5000000000;0.0037693051
625.0000000000;0.0037308552
625.5000000000;0.0037287443
626.0000000000;0.0037419233
626.5000000000;0.0037542328
627.0000000000;0.0037602957
627.5000000000;0.0037356166
628.0000000000;0.0036900009
628.5000000000;0.0037031968
629.0000000000;0.0037446800
629.5000000000;0.0037240544
630.0000000000;0.0036659464
630.5000000000;0.0036265429
631.0000000000;0.0036557689
631.5000000000;0.0037056406
632.0000000000;0.0037031034
632.5000000000;0.0036895662
633.0000000000;0.0036894283
633.5000000000;0.0036802199
634.0000000000;0.0036681315
634.5000000000;0.0036653385
635.0000000000;0.0036593275
635.5000000000;0.0036507670
636.0000000000;0.0036547615
636.5000000000;0.0036666272
637.0000000000;0.0036659758
637.5000000000;0.0036199011
638.0000000000;0.0035766328
638.5000000000;0.0036161083
639.0000000000;0.0036575745
639.5000000000;0.0036471756
640.0000000000;0.0036496834
640.5000000000;0.0036521731
641.0000000000;0.0036102927
641.5000000000;0.0035764468
642.0000000000;0.0035939135
642.5000000000;0.0036530774
643.0000000000;0.0036567100
643.5000000000;0.0035527546
644.0000000000;0.0035277291
644.5000000000;0.0036152906
645.0000000000;0.0036616474
645.5000000000;0.0036438345
646.0000000000;0.0036005462
646.5000000000;0.0035776952
647.0000000000;0.0035860993
647.5000000000;0.0036064805
648.0000000000;0.0036207030
648.5000000000;0.0036163731
649.0000000000;0.0035914429
649.5000000000;0.0035596727
650.0000000000;0.0035421278
650.5000000000;0.0035493120
651.0000000000;0.0035615209
651.5000000000;0.0035326174
652.0000000000;0.0035211989
652.5000000000;0.0035772258
653.0000000000;0.0035737783
653.5000000000;0.0035100873
654.0000000000;0.0035319682
654.5000000000;0.0036249161
655.0000000000;0.0038276184
655.5000000000;0.0040672030
656.0000000000;0.0040374156
656.5000000000;0.0036784403
657.0000000000;0.0032023310
657.5000000000;0.0033663416
658.0000000000;0.0035560317
658.5000000000;0.0034696292
659.0000000000;0.0034781648
659.5000000000;0.0035316106
660.0000000000;0.0035342928
660.5000000000;0.0034721650
661.0000000000;0.0034295004
661.5000000000;0.0034728029
662.0000000000;0.0035010509
662.5000000000;0.0034738018
663.0000000000;0.0034353381
663.5000000000;0.0034074194
664.0000000000;0.0033978692
664.5000000000;0.0034062176
665.0000000000;0.0034262771
665.5000000000;0.0034455741
666.0000000000;0.0034394145
666.5000000000;0.0034138449
667.0000000000;0.0034203434
667.5000000000;0.0034309491
668.0000000000;0.0034009239
668.5000000000;0.0033894121
669.0000000000;0.0034125282
669.5000000000;0.0034158810
670.0000000000;0.0033806372
670.5000000000;0.0033293334
671.0000000000;0.0033379716
671.5000000000;0.0033889823
672.0000000000;0.0033900603
672.5000000000;0.0033313585
673.0000000000;0.0032578667
673.5000000000;0.0032560148
674.0000000000;0.0033150308
674.5000000000;0.0033573792
675.0000000000;0.0033163724
675.5000000000;0.0032118526
676.0000000000;0.0031633591
676.5000000000;0.0031923193
677.0000000000;0.0032549840
677.5000000000;0.0032768049
678.0000000000;0.0032448275
678.5000000000;0.0032107267
679.0000000000;0.0032162433
679.5000000000;0.0032558155
680.0000000000;0.0032457665
680.5000000000;0.0031960846
681.0000000000;0.0031719634
681.5000000000;0.0031447816
682.0000000000;0.0031062569
682.5000000000;0.0031076958
683.0000000000;0.0031247875
683.5000000000;0.0031174265
684.0000000000;0.0031337084
684.5000000000;0.0031697706
685.0000000000;0.0031594485
685.5000000000;0.0031198065
686.0000000000;0.0030931584
686.5000000000;0.0030990609
687.0000000000;0.0031023824
687.5000000000;0.0030531222
688.0000000000;0.0030292224
688.5000000000;0.0030637207
689.0000000000;0.0030678778
689.5000000000;0.0030418886
690.0000000000;0.0030269574
690.5000000000;0.0030018343
691.0000000000;0.0029819689
691.5000000000;0.0030208824
692.0000000000;0.0030321365
692.5000000000;0.0029560397
693.0000000000;0.0029286181
693.5000000000;0.0029467233
694.0000000000;0.0029035893
694.5000000000;0.0028840594
695.0000000000;0.0029247445
695.5000000000;0.0028978905
696.0000000000;0.0028551880
696.5000000000;0.0029017804
697.0000000000;0.0029144580
697.5000000000;0.0028646309
698.0000000000;0.0028718021
698.5000000000;0.0028871777
699.0000000000;0.0028392966
699.5000000000;0.0027919549
700.0000000000;0.0027872028
700.5000000000;0.0028196573
701.0000000000;0.0028280120
701.5000000000;0.0027906923
702.0000000000;0.0027748204
702.5000000000;0.0027767878
703.0000000000;0.0027602699
703.5000000000;0.0027500310
704.0000000000;0.0027503055
704.5000000000;0.0027314394
705.0000000000;0.0027127920
705.5000000000;0.0027087205
706.0000000000;0.0026729065
706.5000000000;0.0026356133
707.0000000000;0.0026677041
707.5000000000;0.0026902915
708.0000000000;0.0026556111
708.5000000000;0.0026366543
709.0000000000;0.0026559054
709.5000000000;0.0026821711
710.0000000000;0.0026384741
710.5000000000;0.0025490837
711.0000000000;0.0025401160
711.5000000000;0.0025646538
712.0000000000;0.0025554386
712.5000000000;0.0025654340
713.0000000000;0.0025774266
713.5000000000;0.0025312747
714.0000000000;0.0024931733
714.5000000000;0.0025048624
715.0000000000;0.0025184331
715.5000000000;0.0025275324
716.0000000000;0.0025355294
716.5000000000;0.0024914851
717.0000000000;0.0024323745
717.5000000000;0.0024677468
718.0000000000;0.0024904762
718.5000000000;0.0024148917
719.0000000000;0.0023702912
719.5000000000;0.0023835867
720.0000000000;0.0023986527
720.5000000000;0.0024196953
721.0000000000;0.0024339324
721.5000000000;0.0023933058
722.0000000000;0.0023618643
722.5000000000;0.0023999927
723.0000000000;0.0023966799
723.5000000000;0.0023340303
724.0000000000;0.0023016213
724.5000000000;0.0023095724
725.0000000000;0.0023332431
725.5000000000;0.0023402716
726.0000000000;0.0023300005
726.5000000000;0.0023110365
727.0000000000;0.0022484015
727.5000000000;0.0021711509
728.0000000000;0.0021825114
728.5000000000;0.0022321513
729.0000000000;0.0022386718
729.5000000000;0.0022226430
730.0000000000;0.0021915920
730.5000000000;0.0021407353
731.0000000000;0.0021232700
731.5000000000;0.0021523612
732.0000000000;0.0021565205
732.5000000000;0.0021367958
733.0000000000;0.0021278635
733.5000000000;0.0021190345
734.0000000000;0.0021045725
734.5000000000;0.0020922411
735.0000000000;0.0020780240
735.5000000000;0.0020613431
736.0000000000;0.0020570494
736.5000000000;0.0020648444
737.0000000000;0.0020683922
737.5000000000;0.0020413983
738.0000000000;0.0019915453
738.5000000000;0.0019707147
739.0000000000;0.0019687968
739.5000000000;0.0019682869
740.0000000000;0.0020147890
740.5000000000;0.0020565719
741.0000000000;0.0019882719
741.5000000000;0.0019447125
742.0000000000;0.0019919917
742.5000000000;0.0019586338
743.0000000000;0.0018767759
743.5000000000;0.0018721482
744.0000000000;0.0019149635
744.5000000000;0.0019419993
745.0000000000;0.0019048585
745.5000000000;0.0018527166
746.0000000000;0.0018369379
746.5000000000;0.0018315802
747.0000000000;0.0018297111
747.5000000000;0.0018362298
748.0000000000;0.0018204178
748.5000000000;0.0017838674
749.0000000000;0.0017765915
749.5000000000;0.0017817741
750.0000000000;0.0017703415
750.5000000000;0.0017687214
751.0000000000;0.0017816296
751.5000000000;0.0017869002
752.0000000000;0.0017614309
752.5000000000;0.0017144426
753.0000000000;0.0017032038
753.5000000000;0.0017318374
754.0000000000;0.0017595486
754.5000000000;0.0017137161
755.0000000000;0.0016369778
755.5000000000;0.0016645279
756.0000000000;0.0017020348
756.5000000000;0.0016664064
757.0000000000;0.0016540176
757.5000000000;0.0016715787
758.0000000000;0.0016685869
758.5000000000;0.0016548935
759.0000000000;0.0016292824
759.5000000000;0.0015738877
760.0000000000;0.0015699976
760.5000000000;0.0016555863
761.0000000000;0.0016818806
761.5000000000;0.0016257666
762.0000000000;0.0015736752
762.5000000000;0.0015620053
763.0000000000;0.0015761254
763.5000000000;0.0015619881
764.0000000000;0.0015698259
764.5000000000;0.0016364101
765.0000000000;0.0016319127
765.5000000000;0.0015469963
766.0000000000;0.0014873118
766.5000000000;0.0014772274
767.0000000000;0.0015043397
767.5000000000;0.0015388887
768.0000000000;0.0015557811
768.5000000000;0.0015400893
769.0000000000;0.0014937044
769.5000000000;0.0014701179
770.0000000000;0.0015372046
770.5000000000;0.0015566919
771.0000000000;0.0014708408
771.5000000000;0.0014812904
772.0000000000;0.0015360268
772.5000000000;0.0014789529
773.0000000000;0.0014229864
773.5000000000;0.0014281514
774.0000000000;0.0014364108
774.5000000000;0.0014202344
775.0000000000;0.0013967609
775.5000000000;0.0014344944
776.0000000000;0.0014773030
776.5000000000;0.0014327471
777.0000000000;0.0014126051
777.5000000000;0.0014423160
778.0000000000;0.0014076853
778.5000000000;0.0013785809
779.0000000000;0.0014243188
779.5000000000;0.0014388546
780.0000000000;0.0014028816
780.5000000000;0.0013725664
781.0000000000;0.0013766942
781.5000000000;0.0013921435
782.0000000000;0.0013525670
782.5000000000;0.0013204798
783.0000000000;0.0013502031
783.5000000000;0.0013343976
784.0000000000;0.0012811819
784.5000000000;0.0012774793
785.0000000000;0.0012526849
785.5000000000;0.0011914138
786.0000000000;0.0012040741
786.5000000000;0.0012639487
787.0000000000;0.0012885436
787.5000000000;0.0012453172
788.0000000000;0.0011812351
788.5000000000;0.0011798522
789.0000000000;0.0012021852
789.5000000000;0.0012138905
790.0000000000;0.0012340797
790.5000000000;0.0012255108
791.0000000000;0.0011653726
791.5000000000;0.0011530268
792.0000000000;0.0012099179
792.5000000000;0.0012624253
793.0000000000;0.0012148664
793.5000000000;0.0011026163
794.0000000000;0.0011383897
794.5000000000;0.0012176025
795.0000000000;0.0011658327
795.5000000000;0.0011060374
796.0000000000;0.0010901217
796.5000000000;0.0010706258
797.0000000000;0.0010904733
797.5000000000;0.0011442762
798.0000000000;0.0011198601
798.5000000000;0.0010833350
799.0000000000;0.0011315364
799.5000000000;0.0011486060
800.0000000000;0.0011133915
800.5000000000;0.0011096803
801.0000000000;0.0011063298
801.5000000000;0.0010745784
802.0000000000;0.0010493498
802.5000000000;0.0010389222
803.0000000000;0.0010347330
803.5000000000;0.0010332047
804.0000000000;0.0010295771
804.5000000000;0.0010235057
805.0000000000;0.0010473997
805.5000000000;0.0010879647
806.0000000000;0.0010539794
806.5000000000;0.0009805808
807.0000000000;0.0009613950
807.5000000000;0.0010356283
808.0000000000;0.0011126589
808.5000000000;0.0010440131
809.0000000000;0.0009761875
809.5000000000;0.0010110423
810.0000000000;0.0010357806
810.5000000000;0.0010353536
811.0000000000;0.0010340513
811.5000000000;0.0009831280
812.0000000000;0.0009216624
812.5000000000;0.0009482787
813.0000000000;0.0009791884
813.5000000000;0.0009654076
814.0000000000;0.0009918454
814.5000000000;0.0010260993
815.0000000000;0.0010043188
815.5000000000;0.0009705007
816.0000000000;0.0009730401
816.5000000000;0.0010218958
817.0000000000;0.0010070698
817.5000000000;0.0009229967
818.0000000000;0.0009476261
818.5000000000;0.0010071440
819.0000000000;0.0009727458
819.5000000000;0.0009307961
820.0000000000;0.0009127144
820.5000000000;0.0008948373
821.0000000000;0.0009519696
821.5000000000;0.0010424291
822.0000000000;0.0009623621
822.5000000000;0.0008970844
823.0000000000;0.0010126426
823.5000000000;0.0009725429
824.0000000000;0.0008119216
824.5000000000;0.0008279915
825.0000000000;0.0008956962
825.5000000000;0.0008842467
826.0000000000;0.0008191018
826.5000000000;0.0008207364
827.0000000000;0.0009309143
827.5000000000;0.0009443629
828.0000000000;0.0008702617
828.5000000000;0.0008624124
829.0000000000;0.0009157850
829.5000000000;0.0009517930
830.0000000000;0.0008793994
830.5000000000;0.0008023189
831.0000000000;0.0008312325
831.5000000000;0.0009186747
832.0000000000;0.0009629073
832.5000000000;0.0008939409
833.0000000000;0.0008326782
833.5000000000;0.0008483286
834.0000000000;0.0008964613
834.5000000000;0.0008789944
835.0000000000;0.0007806999
835.5000000000;0.0007533886
836.0000000000;0.0007895011
836.5000000000;0.0008015405
837.0000000000;0.0008007640
837.5000000000;0.0007929165
838.0000000000;0.0007729724
838.5000000000;0.0008079421
839.0000000000;0.0008627519
839.5000000000;0.0007419012
840.0000000000;0.0006472669
840.5000000000;0.0008037937
841.0000000000;0.0009069700
841.5000000000;0.0008269956
842.0000000000;0.0006870815
842.5000000000;0.0006877542
843.0000000000;0.0008294175
843.5000000000;0.0008367954
844.0000000000;0.0007402139
844.5000000000;0.0006820739
845.0000000000;0.0006952563
845.5000000000;0.0007112116
846.0000000000;0.0006548517
846.5000000000;0.0006805803
847.0000000000;0.0007898022
847.5000000000;0.0007717849
848.0000000000;0.0007280537
848.5000000000;0.0007482328
849.0000000000;0.0006601909
849.5000000000;0.0005919300
850.0000000000;0.0007335169
850.5000000000;0.0007749844
851.0000000000;0.0006813610
851.5000000000;0.0007376692
852.0000000000;0.0008059936
852.5000000000;0.0007641377
853.0000000000;0.0007440387
853.5000000000;0.0007094112
854.0000000000;0.0005997221
854.5000000000;0.0005735717
855.0000000000;0.0006650790
855.5000000000;0.0007660862
856.0000000000;0.0007971835
856.5000000000;0.0007346079
857.0000000000;0.0006295820
857.5000000000;0.0005898895
858.0000000000;0.0006669430
858.5000000000;0.0007343800
859.0000000000;0.0007210148
859.5000000000;0.0006410038
860.0000000000;0.0006025208
860.5000000000;0.0006425801
861.0000000000;0.0006892579
861.5000000000;0.0006555763
862.0000000000;0.0005706502
862.5000000000;0.0006456293
863.0000000000;0.0007544835
863.5000000000;0.0006827773
864.0000000000;0.0005802520
864.5000000000;0.0005794432
865.0000000000;0.0006915497
865.5000000000;0.0007036140
866.0000000000;0.0005692854
866.5000000000;0.0005455423
867.0000000000;0.0006050855
867.5000000000;0.0006348190
868.0000000000;0.0006565388
868.5000000000;0.0006091184
869.0000000000;0.0004417660
869.5000000000;0.0004213059
870.0000000000;0.0005786499
870.5000000000;0.0006282609
871.0000000000;0.0005658647
871.5000000000;0.0005078375
872.0000000000;0.0005664471
872.5000000000;0.0006581836
873.0000000000;0.0006440476
873.5000000000;0.0005623908
874.0000000000;0.0005218862
874.5000000000;0.0006112312
875.0000000000;0.0006573930
875.5000000000;0.0005935130
876.0000000000;0.0005879851
876.5000000000;0.0006428223
877.0000000000;0.0006881673
877.5000000000;0.0006904129
878.0000000000;0.0006876804
878.5000000000;0.0007010688
879.0000000000;0.0005466118
879.5000000000;0.0003681228
880.0000000000;0.0005609053
880.5000000000;0.0007348370
881.0000000000;0.0006288392
881.5000000000;0.0006282601
882.0000000000;0.0006866507
882.5000000000;0.0005953528
883.0000000000;0.0004318957
883.5000000000;0.0003921775
884.0000000000;0.0005900766
884.5000000000;0.0005934199
885.0000000000;0.0003752827
885.5000000000;0.0004727726
886.0000000000;0.0006213344
886.5000000000;0.0005488910
887.0000000000;0.0005641287
887.5000000000;0.0006079263
888.0000000000;0.0005205954
888.5000000000;0.0006049039
889.0000000000;0.0007739645
889.5000000000;0.0006356732
890.0000000000;0.0004407129
890.5000000000;0.0004293467
891.0000000000;0.0005586076
891.5000000000;0.0006724609
892.0000000000;0.0006523351
892.5000000000;0.0005432329
893.0000000000;0.0004201956
893.5000000000;0.0003697690
894.0000000000;0.0004823198
894.5000000000;0.0006528764
895.0000000000;0.0006357738
895.5000000000;0.0004852492
896.0000000000;0.0003590359
896.5000000000;0.0003943718
897.0000000000;0.0005146736
897.5000000000;0.0005728882
898.0000000000;0.0005066609
898.5000000000;0.0003824185
899.0000000000;0.0003402047
899.5000000000;0.0004752264
900.0000000000;0.0006972744
900.5000000000;0.0007581661
901.0000000000;0.0006163390
901.5000000000;0.0004306755
902.0000000000;0.0004874130
902.5000000000;0.0005082745
903.0000000000;0.0002761461
903.5000000000;0.0003721601
904.0000000000;0.0005953318
904.5000000000;0.0003727334
905.0000000000;0.0002396174
905.5000000000;0.0003871605
906.0000000000;0.0004248612
906.5000000000;0.0003973584
907.0000000000;0.0003612458
907.5000000000;0.0001847144
908.0000000000;0.0002533068
908.5000000000;0.0007672248
909.0000000000;0.0008641054
909.5000000000;0.0005336901
910.0000000000;0.0003783508
910.5000000000;0.0003452227
911.0000000000;0.0003421309
911.5000000000;0.0003997509
912.0000000000;0.0005209801
912.5000000000;0.0006195261
913.0000000000;0.0005304430
913.5000000000;0.0004737786
914.0000000000;0.0006162936
914.5000000000;0.0005359691
915.0000000000;0.0002788448
915.5000000000;0.0002075958
916.0000000000;0.0003335691
916.5000000000;0.0004831420
917.0000000000;0.0004426215
917.5000000000;0.0004092331
918.0000000000;0.0004790970
918.5000000000;0.0004207633
919.0000000000;0.0004168966
919.5000000000;0.0006205622
920.0000000000;0.0006260316
920.5000000000;0.0004192661
921.0000000000;0.0002939040
921.5000000000;0.0004299572
922.0000000000;0.0005932610
922.5000000000;0.0003499955
923.0000000000;0.0002885794
923.5000000000;0.0006231643
924.0000000000;0.0006371474
924.5000000000;0.0003766735
925.0000000000;0.0002290647
925.5000000000;0.0004175028
926.0000000000;0.0005460699
926.5000000000;0.0002206286
927.0000000000;0.0002508759
927.5000000000;0.0006018460
928.0000000000;0.0004807748
928.5000000000;0.0003258281
929.0000000000;0.0005156366
929.5000000000;0.0008212639
930.0000000000;0.0007919647
930.5000000000;0.0003885344
931.0000000000;0.0003996369
931.5000000000;0.0005655811
932.0000000000;0.0003590297
932.5000000000;0.0003754720
933.0000000000;0.0005853362
933.5000000000;0.0004852786
934.0000000000;0.0004715422
934.5000000000;0.0006668472
935.0000000000;0.0006738919
935.5000000000;0.0005681834
936.0000000000;0.0005331782
936.5000000000;0.0005936507
937.0000000000;0.0005755964
937.5000000000;0.0003590562
938.0000000000;0.0001687040
938.5000000000;0.0000840025
939.0000000000;0.0001006633
939.5000000000;0.0003947378
940.0000000000;0.0006565164
940.5000000000;0.0003070686
941.0000000000;0.0000945603
941.5000000000;0.0003390783
942.0000000000;0.0002882480
942.5000000000;0.0001422542
943.0000000000;0.0002410889
943.5000000000;0.0003070438
944.0000000000;0.0003027759
944.5000000000;0.0003220641
945.0000000000;0.0002849080
945.5000000000;0.0001965253
946.0000000000;0.0001849876
946.5000000000;0.0004484027
947.0000000000;0.0007464351
947.5000000000;0.0004836402
948.0000000000;0.0001279611
948.5000000000;0.0001170157
949.0000000000;0.0002080076
949.5000000000;0.0002013580
950.0000000000;0.0001537860
950.5000000000;0.0005051094
951.0000000000;0.0008115617
951.5000000000;0.0004296359
952.0000000000;0.0001401681
952.5000000000;0.0002524957
953.0000000000;0.0003876679
953.5000000000;0.0003266627
954.0000000000;0.0001096470
954.5000000000;0.0000320362
955.0000000000;0.0002710752
955.5000000000;0.0005618689
956.0000000000;0.0001367393
956.5000000000;-0.0001745901
957.0000000000;0.0004426255
957.5000000000;0.0006613781
958.0000000000;0.0002773548
958.5000000000;0.0000705346
959.0000000000;0.0004470121
959.5000000000;0.0009941985
960.0000000000;0.0008756439
960.5000000000;0.0006970449
961.0000000000;0.0008493144
961.5000000000;0.0009219698
962.0000000000;0.0008892170
962.5000000000;0.0008253394
963.0000000000;0.0006644938
963.5000000000;0.0003679755
964.0000000000;0.0001079513
964.5000000000;0.0004288341
965.0000000000;0.0007544307
965.5000000000;0.0002163340
966.0000000000;-0.0001598608
966.5000000000;0.0001213609
967.0000000000;0.0005664547
967.5000000000;0.0003879345
968.0000000000;-0.0002099331
968.5000000000;0.0000520165
969.0000000000;0.0004258961
969.5000000000;0.0002276336
970.0000000000;0.0002505804
970.5000000000;0.0005914574
971.0000000000;0.0007735831
971.5000000000;0.0001595658
972.0000000000;-0.0004247995
972.5000000000;0.0001201075
973.0000000000;0.0004778681
973.5000000000;0.0001697603
974.0000000000;-0.0001230875
974.5000000000;-0.0000580444
975.0000000000;0.0003802272
975.5000000000;0.0009117042
976.0000000000;0.0011492635
976.5000000000;0.0009829836
977.0000000000;0.0007378092
977.5000000000;0.0001841420
978.0000000000;-0.0005832039
978.5000000000;-0.0003094382
979.0000000000;0.0006051350
979.5000000000;0.0008352417
980.0000000000;-0.0001473900
980.5000000000;-0.0011071499
981.0000000000;-0.0003187433
981.5000000000;0.0006545600
982.0000000000;0.0005261891
982.5000000000;-0.0004886595
983.0000000000;-0.0004924312
983.5000000000;0.0006902750
984.0000000000;0.0005620901
984.5000000000;0.0000141022
985.0000000000;0.0003900504
985.5000000000;0.0009866252
986.0000000000;0.0008888159
986.5000000000;-0.0000880104
987.0000000000;-0.0005072542
987.5000000000;0.0000421712
988.0000000000;0.0008537059
988.5000000000;0.0006378538
989.0000000000;-0.0003427242
989.5000000000;-0.0006425155
990.0000000000;-0.0003573119
990.5000000000;-0.0000839796
991.0000000000;-0.0002440950
991.5000000000;0.0002339067
992.0000000000;0.0013133035
992.5000000000;0.0008976666
993.0000000000;-0.0002048187
993.5000000000;-0.0004102754
994.0000000000;0.0004483264
994.5000000000;0.0008811568
995.0000000000;-0.0002260448
995.5000000000;-0.0009036320
996.0000000000;-0.0004721050
996.5000000000;0.0003097469
997.0000000000;0.0003999071
997.5000000000;-0.0000321419
998.0000000000;0.0000751447
998.5000000000;0.0005267663
999.0000000000;0.0007567326
999.5000000000;0.0003546663
1000.0000000000;-0.0000520494
1000.5000000000;-0.0000425416
1001.0000000000;0.0000225618
1001.5000000000;0.0002780883
1002.0000000000;0.0006474205
1002.5000000000;0.0003082956
1003.0000000000;-0.0002126087
1003.5000000000;0.0000239542
1004.0000000000;0.0008939424
1004.5000000000;0.0009984947
1005.0000000000;-0.0005892863
1005.5000000000;-0.0010473119
1006.0000000000;-0.0002768674
1006.5000000000;-0.0004536681
1007.0000000000;-0.0005147171
1007.5000000000;-0.0000197677
1008.0000000000;0.0001082195
1008.5000000000;0.0002858256
1009.0000000000;0.0006429544
1009.5000000000;0.0004844728
1010.0000000000;0.0004055353
1010.5000000000;0.0006038590
1011.0000000000;-0.0000983659
1011.5000000000;-0.0006399916
1012.0000000000;0.0000642358
1012.5000000000;0.0006077104
1013.0000000000;0.0004071195
1013.5000000000;-0.0001133105
1014.0000000000;0.0001384876
1014.5000000000;0.0009735327
1015.0000000000;0.0012700621
1015.5000000000;0.0005216058
1016.0000000000;-0.0004822564
1016.5000000000;-0.0004051802
1017.0000000000;-0.0003342389
1017.5000000000;-0.0004782834
1018.0000000000;0.0003000483
1018.5000000000;0.0006096028
1019.0000000000;-0.0000601895
1019.5000000000;0.0000741656
