# UV-Vis Spectrum
# X-Axis:  Wavelength (nm)
# Y-Axis:  &epsilon;
# Y-Axis2: Oscillator Strength

# Peak information
#                  X                   Y                  Y2
#    2625.5013477735        0.0000249941     1274.1373343703
#     778.4062820029        0.0003946036    20115.8949934067
#     559.4428914302        0.0028999246   147830.8266830442
#     462.8345216286        0.0004899680    24977.3302203334
#     444.0692811344        0.0042771061   218036.0577375383
#     394.6445518727        0.0001375445     7011.6723759389
#     383.7102823450        0.0107240063   546682.7392890997
#     381.0149700592        0.0107611422   548575.8326058094
#     375.5815075904        0.0077516011   395157.0327335978
#     374.1013123682        0.0094247828   480451.6077495471
#     357.9937591792        0.0017907533    91288.0791159358
#     341.8255899159        0.0279373975  1424177.9249418371

# Spectra
#                  X                   Y               DY/DX
      200.0000000000        0.0000000000        0.0000000000
      201.0000000000        0.0000000000        0.0000000000
      202.0000000000        0.0000000000        0.0000000000
      203.0000000000        0.0000000000        0.0000000000
      204.0000000000        0.0000000000        0.0000000000
      205.0000000000        0.0000000000        0.0000000000
      206.0000000000        0.0000000000        0.0000000000
      207.0000000000        0.0000000000        0.0000000000
      208.0000000000        0.0000000000        0.0000000000
      209.0000000000        0.0000000000        0.0000000000
      210.0000000000        0.0000000000        0.0000000000
      211.0000000000        0.0000000000        0.0000000000
      212.0000000000        0.0000000000        0.0000000000
      213.0000000000        0.0000000001        0.0000000000
      214.0000000000        0.0000000002        0.0000000000
      215.0000000000        0.0000000004        0.0000000000
      216.0000000000        0.0000000009        0.0000000000
      217.0000000000        0.0000000017        0.0000000000
      218.0000000000        0.0000000034        0.0000000000
      219.0000000000        0.0000000066        0.0000000000
      220.0000000000        0.0000000127        0.0000000000
      221.0000000000        0.0000000239        0.0000000000
      222.0000000000        0.0000000446        0.0000000000
      223.0000000000        0.0000000820        0.0000000000
      224.0000000000        0.0000001488        0.0000000000
      225.0000000000        0.0000002666        0.0000000000
      226.0000000000        0.0000004716        0.0000000000
      227.0000000000        0.0000008240        0.0000000000
      228.0000000000        0.0000014224        0.0000000000
      229.0000000000        0.0000024266        0.0000000000
      230.0000000000        0.0000040920        0.0000000000
      231.0000000000        0.0000068225        0.0000000000
      232.0000000000        0.0000112490        0.0000000000
      233.0000000000        0.0000183468        0.0000000000
      234.0000000000        0.0000296057        0.0000000000
      235.0000000000        0.0000472771        0.0000000000
      236.0000000000        0.0000747281        0.0000000000
      237.0000000000        0.0001169400        0.0000000000
      238.0000000000        0.0001812084        0.0000000000
      239.0000000000        0.0002781096        0.0000000000
      240.0000000000        0.0004228250        0.0000000000
      241.0000000000        0.0006369353        0.0000000001
      242.0000000000        0.0009508256        0.0000000002
      243.0000000000        0.0014068782        0.0000000005
      244.0000000000        0.0020636665        0.0000000010
      245.0000000000        0.0030014117        0.0000000021
      246.0000000000        0.0043290103        0.0000000045
      247.0000000000        0.0061929984        0.0000000092
      248.0000000000        0.0087888763        0.0000000187
      249.0000000000        0.0123752779        0.0000000372
      250.0000000000        0.0172915315        0.0000000729
      251.0000000000        0.0239792206        0.0000001405
      252.0000000000        0.0330084056        0.0000002669
      253.0000000000        0.0451092183        0.0000004993
      254.0000000000        0.0612095744        0.0000009201
      255.0000000000        0.0824797696        0.0000016711
      256.0000000000        0.1103847231        0.0000029916
      257.0000000000        0.1467446052        0.0000052808
      258.0000000000        0.1938045284        0.0000091938
      259.0000000000        0.2543138924        0.0000157909
      260.0000000000        0.3316158404        0.0000267637
      261.0000000000        0.4297471205        0.0000447731
      262.0000000000        0.5535484301        0.0000739485
      263.0000000000        0.7087850724        0.0001206105
      264.0000000000        0.9022774581        0.0001943058
      265.0000000000        1.1420406583        0.0003092645
      266.0000000000        1.4374318482        0.0004864242
      267.0000000000        1.7993041017        0.0007561983
      268.0000000000        2.2401645871        0.0011622092
      269.0000000000        2.7743348148        0.0017662475
      270.0000000000        3.4181101841        0.0026547649
      271.0000000000        4.1899157015        0.0039472482
      272.0000000000        5.1104543997        0.0058068600
      273.0000000000        6.2028446953        0.0084537553
      274.0000000000        7.4927426947        0.0121814888
      275.0000000000        9.0084453102        0.0173769139
      276.0000000000       10.7809699865        0.0245439206
      277.0000000000       12.8441068800        0.0343312755
      278.0000000000       15.2344394820        0.0475646890
      279.0000000000       17.9913299353        0.0652830528
      280.0000000000       21.1568656721        0.0887785476
      281.0000000000       24.7757644835        0.1196400333
      282.0000000000       28.8952357274        0.1597987851
      283.0000000000       33.5647960655        0.2115752629
      284.0000000000       38.8360388980        0.2777251882
      285.0000000000       44.7623574998        0.3614827893
      286.0000000000       51.3986227544        0.4665986774
      287.0000000000       58.8008172955        0.5973694646
      288.0000000000       67.0256287911        0.7586559595
      289.0000000000       76.1300060051        0.9558866139
      290.0000000000       86.1706821348        1.1950428695
      291.0000000000       97.2036707200        1.4826232020
      292.0000000000      109.2837401269        1.8255829985
      293.0000000000      122.4638732163        2.2312479525
      294.0000000000      136.7947192848        2.7071994136
      295.0000000000      152.3240457117        3.2611310868
      296.0000000000      169.0961969430        3.9006776124
      297.0000000000      187.1515684853        4.6332168336
      298.0000000000      206.5261034736        5.4656489286
      299.0000000000      227.2508191118        6.4041569923
      300.0000000000      249.3513698756        7.4539550157
      301.0000000000      272.8476538166        8.6190304710
      302.0000000000      297.7534676400        9.9018897842
      303.0000000000      324.0762154450       11.3033157851
      304.0000000000      351.8166751529       12.8221467195
      305.0000000000      380.9688257124       14.4550865204
      306.0000000000      411.5197371906       16.1965557381
      307.0000000000      443.4495248537       18.0385918030
      308.0000000000      476.7313673367       19.9708061456
      309.0000000000      511.3315880149       21.9804041447
      310.0000000000      547.2097977490       24.0522719792
      311.0000000000      584.3190962905       26.1691322724
      312.0000000000      622.6063288252       28.3117680385
      313.0000000000      662.0123934219       30.4593119584
      314.0000000000      702.4725945337       32.5895955358
      315.0000000000      743.9170371996       34.6795503231
      316.0000000000      786.2710562074       36.7056512629
      317.0000000000      829.4556742073       38.6443903652
      318.0000000000      873.3880826221       40.4727675165
      319.0000000000      917.9821391584       42.1687842583
      320.0000000000      963.1488758043       43.7119259316
      321.0000000000     1008.7970113747       45.0836176752
      322.0000000000     1054.8334629353       46.2676403963
      323.0000000000     1101.1638507889       47.2504939738
      324.0000000000     1147.6929921295       48.0216965578
      325.0000000000     1194.3253789475       48.5740108399
      326.0000000000     1240.9656362888       48.9035904885
      327.0000000000     1287.5189575254       49.0100424962
      328.0000000000     1333.8915138590       48.8964038587
      329.0000000000     1379.9908358547       48.5690336975
      330.0000000000     1425.7261653657       48.0374245573
      331.0000000000     1471.0087767581       47.3139390455
      332.0000000000     1515.7522668632       46.4134801648
      333.0000000000     1559.8728135733       45.3531055395
      334.0000000000     1603.2894034365       44.1515972027
      335.0000000000     1645.9240290047       42.8289996512
      336.0000000000     1687.7018570320       41.4061394752
      337.0000000000     1728.5513689151       39.9041400164
      338.0000000000     1768.4044750037       38.3439442286
      339.0000000000     1807.1966045933       36.7458582264
      340.0000000000     1844.8667735443       35.1291269607
      341.0000000000     1881.3576315534       33.5115521047
      342.0000000000     1916.6154911364       31.9091606290
      343.0000000000     1950.5903403747       30.3359307615
      344.0000000000     1983.2358414292       28.8035801290
      345.0000000000     2014.5093167457       27.3214189336
      346.0000000000     2044.3717247674       25.8962690919
      347.0000000000     2072.7876268354       24.5324484178
      348.0000000000     2099.7251468109       23.2318172157
      349.0000000000     2125.1559247877       21.9938831064
      350.0000000000     2149.0550660919       20.8159585840
      351.0000000000     2171.4010865933       19.6933647027
      352.0000000000     2192.1758551761       18.6196734608
      353.0000000000     2211.3645340502       17.5869808604
      354.0000000000     2228.9555174196       16.5862023081
      355.0000000000     2244.9403688748       15.6073819438
      356.0000000000     2259.3137577390       14.6400076456
      357.0000000000     2272.0733944712       13.6733238270
      358.0000000000     2283.2199651242       12.6966346940
      359.0000000000     2292.7570647625       11.6995913328
      360.0000000000     2300.6911296734       10.6724568261
      361.0000000000     2307.0313681448        9.6063445079
      362.0000000000     2311.7896895452        8.4934254381
      363.0000000000     2314.9806314169        7.3271021723
      364.0000000000     2316.6212842828        6.1021468980
      365.0000000000     2316.7312138741        4.8148029676
      366.0000000000     2315.3323805010        3.4628497734
      367.0000000000     2312.4490553183        2.0456317487
      368.0000000000     2308.1077332745        0.5640530333
      369.0000000000     2302.3370425781       -0.9794599993
      370.0000000000     2295.1676505658       -2.5810256082
      371.0000000000     2286.6321659143       -4.2353997549
      372.0000000000     2276.7650371941       -5.9360918572
      373.0000000000     2265.6024478251       -7.6754994827
      374.0000000000     2253.1822075529       -9.4450581202
      375.0000000000     2239.5436406252      -11.2354021410
      376.0000000000     2224.7274709002      -13.0365331288
      377.0000000000     2208.7757041777      -14.8379918992
      378.0000000000     2191.7315080854      -16.6290307388
      379.0000000000     2173.6390899039      -18.3987826590
      380.0000000000     2154.5435727450      -20.1364247723
      381.0000000000     2134.4908705362      -21.8313332365
      382.0000000000     2113.5275622865      -23.4732275817
      383.0000000000     2091.7007661288      -25.0523026077
      384.0000000000     2069.0580136498      -26.5593464204
      385.0000000000     2045.6471250218      -27.9858435460
      386.0000000000     2021.5160854530      -29.3240624229
      387.0000000000     1996.7129234687      -30.5671269090
      388.0000000000     1971.2855915226      -31.7090717563
      389.0000000000     1945.2818494227      -32.7448822922
      390.0000000000     1918.7491510363      -33.6705187982
      391.0000000000     1891.7345347105      -34.4829262992
      392.0000000000     1864.2845178198      -35.1800306625
      393.0000000000     1836.4449958169      -35.7607220560
      394.0000000000     1808.2611461288      -36.2248269342
      395.0000000000     1779.7773372063      -36.5730698061
      396.0000000000     1751.0370429910      -36.8070260927
      397.0000000000     1722.0827630300      -36.9290674103
      398.0000000000     1692.9559484231      -36.9423006143
      399.0000000000     1663.6969337518      -36.8505019188
      400.0000000000     1634.3448750951      -36.6580473626
      401.0000000000     1604.9376941997      -36.3698408340
      402.0000000000     1575.5120288343      -35.9912407960
      403.0000000000     1546.1031893188      -35.5279867637
      404.0000000000     1516.7451211857      -34.9861264996
      405.0000000000     1487.4703738965      -34.3719447885
      406.0000000000     1458.3100755053      -33.6918945543
      407.0000000000     1429.2939131308      -32.9525309782
      408.0000000000     1400.4501190757      -32.1604491719
      409.0000000000     1371.8054624019      -31.3222258635
      410.0000000000     1343.3852457550      -30.4443654527
      411.0000000000     1315.2133072080      -29.5332507022
      412.0000000000     1287.3120268792      -28.5950982460
      413.0000000000     1259.7023380668      -27.6359190152
      414.0000000000     1232.4037426293      -26.6614836082
      415.0000000000     1205.4343303341      -25.6772925697
      416.0000000000     1178.8108018876      -24.6885514816
      417.0000000000     1152.5484953600      -23.7001507223
      418.0000000000     1126.6614157120      -22.7166497037
      419.0000000000     1101.1622671327      -21.7422653652
      420.0000000000     1076.0624878995      -20.7808646685
      421.0000000000     1051.3722874756      -19.8359608210
      422.0000000000     1027.1006855629      -18.9107129343
      423.0000000000     1003.2555528381      -18.0079288169
      424.0000000000      979.8436531061      -17.1300705930
      425.0000000000      956.8706866141      -16.2792628371
      426.0000000000      934.3413342795      -15.4573029200
      427.0000000000      912.2593025970      -14.6656732647
      428.0000000000      890.6273690000      -13.9055552220
      429.0000000000      869.4474274650      -13.1778442861
      430.0000000000      848.7205341594      -12.4831663863
      431.0000000000      828.4469529474      -11.8218950033
      432.0000000000      808.6262005793      -11.1941688780
      433.0000000000      789.2570914058      -10.5999100961
      434.0000000000      770.3377814692      -10.0388423519
      435.0000000000      751.8658118385       -9.5105092102
      436.0000000000      733.8381510679       -9.0142922065
      437.0000000000      716.2512366697       -8.5494286409
      438.0000000000      699.1010155065       -8.1150289407
      439.0000000000      682.3829830190       -7.7100934824
      440.0000000000      666.0922212164       -7.3335287813
      441.0000000000      650.2234353694       -6.9841629703
      442.0000000000      634.7709893538       -6.6607605061
      443.0000000000      619.7289396061       -6.3620360544
      444.0000000000      605.0910676580       -6.0866675153
      445.0000000000      590.8509112294       -5.8333081670
      446.0000000000      577.0017938652       -5.6005979107
      447.0000000000      563.5368531112       -5.3871736131
      448.0000000000      550.4490672283       -5.1916785497
      449.0000000000      537.7312804558       -5.0127709597
      450.0000000000      525.3762268353       -4.8491317307
      451.0000000000      513.3765526162       -4.6994712351
      452.0000000000      501.7248372662       -4.5625353482
      453.0000000000      490.4136131171       -4.4371106786
      454.0000000000      479.4353836768       -4.3220290466
      455.0000000000      468.7826406456       -4.2161712492
      456.0000000000      458.4478796743       -4.1184701511
      457.0000000000      448.4236149070       -4.0279131432
      458.0000000000      438.7023923511       -3.9435440107
      459.0000000000      429.2768021212       -3.8644642535
      460.0000000000      420.1394896025       -3.7898339022
      461.0000000000      411.2831655815       -3.7188718697
      462.0000000000      402.7006153926       -3.6508558831
      463.0000000000      394.3847071290       -3.5851220332
      464.0000000000      386.3283989664       -3.5210639829
      465.0000000000      378.5247456477       -3.4581318720
      466.0000000000      370.9669041769       -3.3958309534
      467.0000000000      363.6481387701       -3.3337199973
      468.0000000000      356.5618251086       -3.2714094937
      469.0000000000      349.7014539407       -3.2085596867
      470.0000000000      343.0606340772       -3.1448784673
      471.0000000000      336.6330948216       -3.0801191526
      472.0000000000      330.4126878792       -3.0140781768
      473.0000000000      324.3933887835       -2.9465927162
      474.0000000000      318.5692978800       -2.8775382709
      475.0000000000      312.9346409042       -2.8068262202
      476.0000000000      307.4837691888       -2.7344013724
      477.0000000000      302.2111595355       -2.6602395216
      478.0000000000      297.1114137823       -2.5843450287
      479.0000000000      292.1792580978       -2.5067484365
      480.0000000000      287.4095420309       -2.4275041322
      481.0000000000      282.7972373439       -2.3466880655
      482.0000000000      278.3374366540       -2.2643955316
      483.0000000000      274.0253519075       -2.1807390252
      484.0000000000      269.8563127093       -2.0958461730
      485.0000000000      265.8257645282       -2.0098577472
      486.0000000000      261.9292667983       -1.9229257664
      487.0000000000      258.1624909329       -1.8352116854
      488.0000000000      254.5212182693       -1.7468846760
      489.0000000000      251.0013379582       -1.6581200007
      490.0000000000      247.5988448123       -1.5690974799
      491.0000000000      244.3098371264       -1.4800000527
      492.0000000000      241.1305144811       -1.3910124303
      493.0000000000      238.0571755396       -1.3023198421
      494.0000000000      235.0862158471       -1.2141068721
      495.0000000000      232.2141256413       -1.1265563847
      496.0000000000      229.4374876814       -1.0398485374
      497.0000000000      226.7529751012       -0.9541598783
      498.0000000000      224.1573492931       -0.8696625254
      499.0000000000      221.6474578261       -0.7865234266
      500.0000000000      219.2202324040       -0.7049036949
      501.0000000000      216.8726868648       -0.6249580180
      502.0000000000      214.6019152266       -0.5468341391
      503.0000000000      212.4050897796       -0.4706724039
      504.0000000000      210.2794592280       -0.3966053731
      505.0000000000      208.2223468817       -0.3247574956
