# UV-Vis Spectrum
# X-Axis:  Wavelength (nm)
# Y-Axis:  &epsilon;
# Y-Axis2: Oscillator Strength

# Peak information
#                  X                   Y                  Y2
#    5133.8200000000        0.0000000000        0.0000000000
#     864.3800000000        0.0005000000    85466.2079547573
#     585.4300000000        0.0041000000   700822.9052290095
#     492.2800000000        0.0008000000   136745.9327276116
#     455.4700000000        0.0005000000    85466.2079547573
#     421.9600000000        0.0007000000   119652.6911366601
#     399.1600000000        0.0302000000  5162158.9604673376
#     393.0100000000        0.0006000000   102559.4495457087
#     376.9000000000        0.0227000000  3880165.8411459797
#     372.3900000000        0.0082000000  1401645.8104580191
#     361.2300000000        0.0235000000  4016911.7738735909
#     356.6500000000        0.0244000000  4170750.9481921541
#     352.9200000000        0.0014000000   239305.3822733203
#     342.4800000000        0.0123000000  2102468.7156870277
#     336.2900000000        0.0052000000   888848.5627294752
#     329.3000000000        0.0004000000    68372.9663638058
#     323.2000000000        0.0002000000    34186.4831819029
#     318.2100000000        0.0003000000    51279.7247728544
#     317.0600000000        0.0008000000   136745.9327276116
#     312.7300000000        0.0093000000  1589671.4679584845
#     309.3400000000        0.0006000000   102559.4495457087
#     304.6300000000        0.0029000000   495704.0061375920
#     302.1900000000        0.0036000000   615356.6972742521
#     300.5000000000        0.0008000000   136745.9327276116
#     299.7900000000        0.0019000000   324771.5902280775

# Spectra
#                  X                   Y               DY/DX
      200.0000000000        0.0000000005        0.0000000000
      201.0000000000        0.0000000012        0.0000000000
      202.0000000000        0.0000000025        0.0000000000
      203.0000000000        0.0000000054        0.0000000000
      204.0000000000        0.0000000114        0.0000000000
      205.0000000000        0.0000000235        0.0000000000
      206.0000000000        0.0000000476        0.0000000000
      207.0000000000        0.0000000948        0.0000000000
      208.0000000000        0.0000001855        0.0000000000
      209.0000000000        0.0000003572        0.0000000000
      210.0000000000        0.0000006769        0.0000000000
      211.0000000000        0.0000012626        0.0000000000
      212.0000000000        0.0000023192        0.0000000000
      213.0000000000        0.0000041964        0.0000000000
      214.0000000000        0.0000074828        0.0000000000
      215.0000000000        0.0000131529        0.0000000000
      216.0000000000        0.0000227981        0.0000000000
      217.0000000000        0.0000389794        0.0000000000
      218.0000000000        0.0000657605        0.0000000000
      219.0000000000        0.0001095015        0.0000000000
      220.0000000000        0.0001800235        0.0000000000
      221.0000000000        0.0002922923        0.0000000001
      222.0000000000        0.0004688212        0.0000000002
      223.0000000000        0.0007430500        0.0000000005
      224.0000000000        0.0011640348        0.0000000012
      225.0000000000        0.0018028705        0.0000000029
      226.0000000000        0.0027613686        0.0000000068
      227.0000000000        0.0041836326        0.0000000154
      228.0000000000        0.0062712961        0.0000000344
      229.0000000000        0.0093033319        0.0000000752
      230.0000000000        0.0136614718        0.0000001609
      231.0000000000        0.0198624194        0.0000003368
      232.0000000000        0.0285981594        0.0000006908
      233.0000000000        0.0407857642        0.0000013887
      234.0000000000        0.0576281689        0.0000027376
      235.0000000000        0.0806873950        0.0000052940
      236.0000000000        0.1119716568        0.0000100468
      237.0000000000        0.1540376569        0.0000187189
      238.0000000000        0.2101091571        0.0000342540
      239.0000000000        0.2842125898        0.0000615870
      240.0000000000        0.3813300426        0.0001088360
      241.0000000000        0.5075694022        0.0001891131
      242.0000000000        0.6703507862        0.0003232139
      243.0000000000        0.8786076321        0.0005435368
      244.0000000000        1.1429999625        0.0008996751
      245.0000000000        1.4761364373        0.0014662371
      246.0000000000        1.8928008581        0.0023535596
      247.0000000000        2.4101778494        0.0037220830
      248.0000000000        3.0480715460        0.0058012418
      249.0000000000        3.8291103183        0.0089137629
      250.0000000000        4.7789299022        0.0135062394
      251.0000000000        5.9263268324        0.0201867398
      252.0000000000        7.3033738410        0.0297699770
      253.0000000000        8.9454889183        0.0433302048
      254.0000000000       10.8914500746        0.0622614844
      255.0000000000       13.1833485075        0.0883442932
      256.0000000000       15.8664738787        0.1238166208
      257.0000000000       18.9891267299        0.1714467550
      258.0000000000       22.6023547003        0.2346039444
      259.0000000000       26.7596111111        0.3173221032
      260.0000000000       31.5163366102        0.4243507906
      261.0000000000       36.9294668509        0.5611869414
      262.0000000000       43.0568715529        0.7340803709
      263.0000000000       49.9567326668        0.9500060076
      264.0000000000       57.6868716625        1.2165962387
      265.0000000000       66.3040380902        1.5420277312
      266.0000000000       75.8631734412        1.9348586578
      267.0000000000       86.4166658886        2.4038143993
      268.0000000000       98.0136126382        2.9575224432
      269.0000000000      110.6991073246        3.6042002515
      270.0000000000      124.5135700895        4.3513031584
      271.0000000000      139.4921376746        5.2051426870
      272.0000000000      155.6641300239        6.1704888247
      273.0000000000      173.0526085482        7.2501725208
      274.0000000000      191.6740393849        8.4447067613
      275.0000000000      211.5380727275        9.7519458149
      276.0000000000      232.6474466824       11.1668024972
      277.0000000000      254.9980211908       12.6810424547
      278.0000000000      278.5789444351       14.2831725094
      279.0000000000      303.3729509084       15.9584370747
      280.0000000000      329.3567870705       17.6889326662
      281.0000000000      356.5017573277       19.4538457809
      282.0000000000      384.7743800627       21.2298141370
      283.0000000000      414.1371406730       22.9914057343
      284.0000000000      444.5493261449       24.7117047046
      285.0000000000      475.9679236484       26.3629877743
      286.0000000000      508.3485640417       27.9174706310
      287.0000000000      541.6464900632       29.3480998125
      288.0000000000      575.8175283789       30.6293631138
      289.0000000000      610.8190445579       31.7380900696
      290.0000000000      646.6108604592       32.6542138667
      291.0000000000      683.1561144002       33.3614670892
      292.0000000000      720.4220458219       33.8479859159
      293.0000000000      758.3806879060       34.1068006549
      294.0000000000      797.0094536913       34.1361946444
      295.0000000000      836.2916036192       33.9399183551
      296.0000000000      876.2165850331       33.5272507755
      297.0000000000      916.7802369136       32.9129055910
      298.0000000000      957.9848559591       32.1167850631
      299.0000000000      999.8391229685       31.1635896271
      300.0000000000     1042.3578912749       30.0822958827
      301.0000000000     1085.5618416520       28.9055196626
      302.0000000000     1129.4770106242       27.6687841202
      303.0000000000     1174.1342013972       26.4097151815
      304.0000000000     1219.5682886542       25.1671882137
      305.0000000000     1265.8174302007       23.9804503814
      306.0000000000     1312.9221998622       22.8882429104
      307.0000000000     1360.9246571332       21.9279464355
      308.0000000000     1409.8673698306       21.1347708667
      309.0000000000     1459.7924064260       20.5410088803
      310.0000000000     1510.7403148260       20.1753693546
      311.0000000000     1562.7491041508       20.0624039709
      312.0000000000     1615.8532455548       20.2220369112
      313.0000000000     1670.0827073591       20.6692042464
      314.0000000000     1725.4620387548       21.4136063377
      315.0000000000     1782.0095151278       22.4595734745
      316.0000000000     1839.7363566702       23.8060421339
      317.0000000000     1898.6460304335       25.4466367347
      318.0000000000     1958.7336443621       27.3698496202
      319.0000000000     2019.9854401739       29.5593102692
      320.0000000000     2082.3783902491       31.9941334071
      321.0000000000     2145.8799019870       34.6493347668
      322.0000000000     2210.4476314205       37.4963027006
      323.0000000000     2276.0294062707       40.5033136498
      324.0000000000     2342.5632570913       43.6360795830
      325.0000000000     2409.9775537319       46.8583158787
      326.0000000000     2478.1912430416       50.1323187069
      327.0000000000     2547.1141825605       53.4195416990
      328.0000000000     2616.6475639209       56.6811625544
      329.0000000000     2686.6844187960       59.8786311662
      330.0000000000     2757.1101995095       62.9741918206
      331.0000000000     2827.8034258471       65.9313730166
      332.0000000000     2898.6363891878       68.7154394296
      333.0000000000     2969.4759048012       71.2938014923
      334.0000000000     3040.1841030234       73.6363789827
      335.0000000000     3110.6192500241       75.7159158756
      336.0000000000     3180.6365889984       77.5082445354
      337.0000000000     3250.0891928539       78.9924981039
      338.0000000000     3318.8288197947       80.1512706587
      339.0000000000     3386.7067636270       80.9707254085
      340.0000000000     3453.5746911071       81.4406518251
      341.0000000000     3519.2854592111       81.5544732204
      342.0000000000     3583.6939058122       81.3092068323
      343.0000000000     3646.6576078990       80.7053790115
      344.0000000000     3708.0376021358       79.7468985732
      345.0000000000     3767.6990632525       78.4408918175
      346.0000000000     3825.5119364395       76.7975031014
      347.0000000000     3881.3515206086       74.8296651759
      348.0000000000     3935.0990000462       72.5528437668
      349.0000000000     3986.6419226401       69.9847610837
      350.0000000000     4035.8746234751       67.1451030708
      351.0000000000     4082.6985931856       64.0552152746
      352.0000000000     4127.0227909995       60.7377921846
      353.0000000000     4168.7639029170       57.2165648146
      354.0000000000     4207.8465459340       53.5159911214
      355.0000000000     4244.2034196350       49.6609536216
      356.0000000000     4277.7754068559       45.6764682623
      357.0000000000     4308.5116254381       41.5874082350
      358.0000000000     4336.3694333781       37.4182460068
      359.0000000000     4361.3143899042       33.1928163831
      360.0000000000     4383.3201752058       28.9341029250
      361.0000000000     4402.3684716809       24.6640495329
      362.0000000000     4418.4488096801       20.4033984842
      363.0000000000     4431.5583807879       16.1715556953
      364.0000000000     4441.7018217218       11.9864834657
      365.0000000000     4448.8909719273        7.8646204801
      366.0000000000     4453.1446079227        3.8208283870
      367.0000000000     4454.4881573976       -0.1316361413
      368.0000000000     4452.9533959886       -3.9811253333
      369.0000000000     4448.5781295675       -7.7175820079
      370.0000000000     4441.4058647625      -11.3325010765
      371.0000000000     4431.4854703103      -14.8188731072
      372.0000000000     4418.8708316975      -18.1711123507
      373.0000000000     4403.6205014117      -21.3849717181
      374.0000000000     4385.7973469626      -24.4574472374
      375.0000000000     4365.4681986881      -27.3866744977
      376.0000000000     4342.7034991943      -30.1718195300
      377.0000000000     4317.5769561272      -32.8129664653
      378.0000000000     4290.1651998140      -35.3110041669
      379.0000000000     4260.5474471580      -37.6675138624
      380.0000000000     4228.8051730233      -39.8846595984
      381.0000000000     4195.0217901974      -41.9650831239
      382.0000000000     4159.2823388803      -43.9118045797
      383.0000000000     4121.6731865192      -45.7281301296
      384.0000000000     4082.2817386739      -47.4175674352
      385.0000000000     4041.1961614867      -48.9837496392
      386.0000000000     3998.5051162123      -50.4303682958
      387.0000000000     3954.2975061632      -51.7611154754
      388.0000000000     3908.6622363268      -52.9796350706
      389.0000000000     3861.6879858250      -54.0894831528
      390.0000000000     3813.4629933007      -55.0940970686
      391.0000000000     3764.0748552482      -55.9967728281
      392.0000000000     3713.6103372325      -56.8006502220
      393.0000000000     3662.1551978859      -57.5087050114
      394.0000000000     3609.7940255164      -58.1237474659
      395.0000000000     3556.6100871150      -58.6484264729
      396.0000000000     3502.6851895087      -59.0852384179
      397.0000000000     3448.0995523712      -59.4365400203
      398.0000000000     3392.9316927709      -59.7045643212
      399.0000000000     3337.2583209134      -59.8914390400
      400.0000000000     3281.1542467112      -59.9992065526
      401.0000000000     3224.6922967997      -60.0298447926
      402.0000000000     3167.9432416027      -59.9852884301
      403.0000000000     3110.9757320413      -59.8674497475
      404.0000000000     3053.8562454740      -59.6782387002
      405.0000000000     2996.6490404509      -59.4195817175
      406.0000000000     2939.4161198613      -59.0934388749
      407.0000000000     2882.2172020586      -58.7018191388
      408.0000000000     2825.1096995436      -58.2467934547
      409.0000000000     2768.1487047944      -57.7305055189
      410.0000000000     2711.3869828356      -57.1551801353
      411.0000000000     2654.8749701448      -56.5231291191
      412.0000000000     2598.6607795043      -55.8367547618
      413.0000000000     2542.7902104118      -55.0985509210
      414.0000000000     2487.3067646750      -54.3111018373
      415.0000000000     2432.2516668242      -53.4770788201
      416.0000000000     2377.6638889874      -52.5992349686
      417.0000000000     2323.5801798827      -51.6803981224
      418.0000000000     2270.0350975956      -50.7234622483
      419.0000000000     2217.0610458173      -49.7313774864
      420.0000000000     2164.6883132349      -48.7071390806
      421.0000000000     2112.9451157733      -47.6537754247
      422.0000000000     2061.8576414020      -46.5743354490
      423.0000000000     2011.4500972303      -45.4718755693
      424.0000000000     1961.7447586275      -44.3494464086
      425.0000000000     1912.7620201158      -43.2100794902
      426.0000000000     1864.5204477936      -42.0567740874
      427.0000000000     1817.0368330606      -40.8924843988
      428.0000000000     1770.3262474262      -39.7201071988
      429.0000000000     1724.4020981930      -38.5424700983
      430.0000000000     1679.2761848200      -37.3623205287
      431.0000000000     1634.9587557781      -36.1823155470
      432.0000000000     1591.4585657244      -35.0050125373
      433.0000000000     1548.7829328279      -33.8328608710
      434.0000000000     1506.9377960944      -32.6681945664
      435.0000000000     1465.9277725417      -31.5132259762
      436.0000000000     1425.7562140930      -30.3700405127
      437.0000000000     1386.4252640588      -29.2405924108
      438.0000000000     1347.9359130928      -28.1267015122
      439.0000000000     1310.2880545107      -27.0300510465
      440.0000000000     1273.4805388737      -25.9521863738
      441.0000000000     1237.5112277435      -24.8945146444
      442.0000000000     1202.3770465268      -23.8583053263
      443.0000000000     1168.0740363307      -22.8446915426
      444.0000000000     1134.5974047630      -21.8546721603
      445.0000000000     1101.9415756147      -20.8891145644
      446.0000000000     1070.1002373692      -19.9487580538
      447.0000000000     1039.0663904934      -19.0342177897
      448.0000000000     1008.8323934651      -18.1459892311
      449.0000000000      979.3900075046      -17.2844529896
      450.0000000000      950.7304399790      -16.4498800399
      451.0000000000      922.8443864551      -15.6424372206
      452.0000000000      895.7220713834      -14.8621929666
      453.0000000000      869.3532873961      -14.1091232145
      454.0000000000      843.7274332135      -13.3831174268
      455.0000000000      818.8335501508      -12.6839846838
      456.0000000000      794.6603572260      -12.0114597961
      457.0000000000      771.1962848718      -11.3652093956
      458.0000000000      748.4295072574      -10.7448379637
      459.0000000000      726.3479732317      -10.1498937635
      460.0000000000      704.9394358991       -9.5798746436
      461.0000000000      684.1914808462       -9.0342336859
      462.0000000000      664.0915530358       -8.5123846740
      463.0000000000      644.6269823912       -8.0137073623
      464.0000000000      625.7850080930       -7.5375525281
      465.0000000000      607.5528016139       -7.0832467939
      466.0000000000      589.9174885186       -6.6500972087
      467.0000000000      572.8661690574       -6.2373955810
      468.0000000000      556.3859375836       -5.8444225579
      469.0000000000      540.4639008256       -5.4704514477
      470.0000000000      525.0871950458       -5.1147517844
      471.0000000000      510.2430021203       -4.7765926366
      472.0000000000      495.9185645710       -4.4552456618
      473.0000000000      482.1011995876       -4.1499879122
      474.0000000000      468.7783120707       -3.8601043958
      475.0000000000      455.9374067331       -3.5848904006
      476.0000000000      443.5660992946       -3.3236535890
      477.0000000000      431.6521268034       -3.0757158710
      478.0000000000      420.1833571211       -2.8404150639
      479.0000000000      409.1477976048       -2.6171063501
      480.0000000000      398.5336030226       -2.4051635405
      481.0000000000      388.3290827334       -2.2039801545
      482.0000000000      378.5227071689       -2.0129703268
      483.0000000000      369.1031136476       -1.8315695504
      484.0000000000      360.0591115549       -1.6592352668
      485.0000000000      351.3796869211       -1.4954473126
      486.0000000000      343.0540064288       -1.3397082325
      487.0000000000      335.0714208795       -1.1915434686
      488.0000000000      327.4214681498       -1.0505014347
      489.0000000000      320.0938756662       -0.9161534857
      490.0000000000      313.0785624258       -0.7880937897
      491.0000000000      306.3656405909       -0.6659391118
      492.0000000000      299.9454166839       -0.5493285176
