3.996468e+002;1.674739e-001
4.016858e+002;1.587640e-001
4.037248e+002;1.533137e-001
4.057638e+002;1.510834e-001
4.078028e+002;1.505984e-001
4.098418e+002;1.507951e-001
4.118809e+002;1.521615e-001
4.139199e+002;1.545539e-001
4.159589e+002;1.581736e-001
4.179979e+002;1.634185e-001
4.200369e+002;1.647692e-001
4.220759e+002;1.633337e-001
4.241149e+002;1.649708e-001
4.261539e+002;1.687842e-001
4.281930e+002;1.729355e-001
4.302320e+002;1.771034e-001
4.322710e+002;1.809486e-001
4.343100e+002;1.831076e-001
4.363490e+002;1.830722e-001
4.383880e+002;1.824724e-001
4.404271e+002;1.826541e-001
4.424661e+002;1.839994e-001
4.445051e+002;1.872131e-001
4.465441e+002;1.918105e-001
4.485831e+002;1.974373e-001
4.506221e+002;2.051640e-001
4.526611e+002;2.153557e-001
4.547001e+002;2.274593e-001
4.567392e+002;2.425773e-001
4.587782e+002;2.541171e-001
4.608172e+002;2.511093e-001
4.628562e+002;2.374659e-001
4.648952e+002;2.224553e-001
4.669342e+002;2.125826e-001
4.689732e+002;2.089100e-001
4.710123e+002;2.091148e-001
4.730513e+002;2.116175e-001
4.750903e+002;2.158590e-001
4.771293e+002;2.220796e-001
4.791683e+002;2.313502e-001
4.812073e+002;2.444657e-001
4.832463e+002;2.618622e-001
4.852854e+002;2.819673e-001
4.873244e+002;3.004115e-001
4.893634e+002;3.126256e-001
4.914024e+002;3.159636e-001
4.934414e+002;3.134235e-001
4.954804e+002;3.131871e-001
4.975194e+002;3.202871e-001
4.995585e+002;3.328175e-001
5.015975e+002;3.454489e-001
5.036365e+002;3.535399e-001
5.056755e+002;3.557527e-001
5.077145e+002;3.536216e-001
5.097535e+002;3.492647e-001
5.117925e+002;3.440759e-001
5.138315e+002;3.382610e-001
5.158706e+002;3.312461e-001
5.179096e+002;3.222752e-001
5.199486e+002;3.118903e-001
5.219876e+002;3.020963e-001
5.240266e+002;2.940912e-001
5.260657e+002;2.868642e-001
5.281047e+002;2.792126e-001
5.301437e+002;2.719344e-001
5.321827e+002;2.654848e-001
5.342217e+002;2.586724e-001
5.362607e+002;2.508859e-001
5.382997e+002;2.433534e-001
5.403387e+002;2.369545e-001
5.423777e+002;2.315177e-001
5.444167e+002;2.271938e-001
5.464558e+002;2.240552e-001
5.484948e+002;2.226537e-001
5.505338e+002;2.250423e-001
5.525728e+002;2.293954e-001
5.546118e+002;2.266991e-001
5.566509e+002;2.134022e-001
5.586899e+002;1.972971e-001
5.607289e+002;1.841454e-001
5.627679e+002;1.745276e-001
5.648069e+002;1.681734e-001
5.668459e+002;1.641358e-001
5.688849e+002;1.615999e-001
5.709240e+002;1.604753e-001
5.729630e+002;1.608633e-001
5.750020e+002;1.626851e-001
5.770410e+002;1.659380e-001
5.790800e+002;1.707407e-001
5.811190e+002;1.765516e-001
5.831581e+002;1.814931e-001
5.851971e+002;1.833266e-001
5.872361e+002;1.816444e-001
5.892751e+002;1.790314e-001
5.913141e+002;1.775867e-001
5.933531e+002;1.769925e-001
5.953922e+002;1.765351e-001
5.974312e+002;1.760530e-001
5.994702e+002;1.760628e-001
6.015092e+002;1.771194e-001
6.035482e+002;1.794937e-001
6.055872e+002;1.831327e-001
6.076262e+002;1.880233e-001
6.096652e+002;1.937851e-001
6.117042e+002;1.990902e-001
6.137433e+002;2.035465e-001
6.157823e+002;2.080910e-001
6.178213e+002;2.143048e-001
6.198603e+002;2.241261e-001
6.218993e+002;2.387969e-001
6.239384e+002;2.576685e-001
6.259774e+002;2.754252e-001
6.280164e+002;2.824657e-001
6.300554e+002;2.742467e-001
6.320944e+002;2.573021e-001
6.341334e+002;2.430713e-001
6.361724e+002;2.366948e-001
6.382114e+002;2.338316e-001
6.402505e+002;2.281740e-001
6.422894e+002;2.185489e-001
6.443285e+002;2.078247e-001
6.463675e+002;1.983767e-001
6.484065e+002;1.908380e-001
6.504456e+002;1.851653e-001
6.524846e+002;1.809331e-001
6.545236e+002;1.773768e-001
6.565626e+002;1.743580e-001
6.586016e+002;1.719796e-001
6.606406e+002;1.698731e-001
6.626796e+002;1.676755e-001
6.647186e+002;1.656818e-001
6.667576e+002;1.641054e-001
6.687966e+002;1.630083e-001
6.708357e+002;1.627038e-001
6.728747e+002;1.632416e-001
6.749137e+002;1.648635e-001
6.769527e+002;1.670346e-001
6.789917e+002;1.685330e-001
6.810308e+002;1.685879e-001
6.830698e+002;1.672080e-001
6.851088e+002;1.651587e-001
6.871478e+002;1.629964e-001
6.891868e+002;1.605130e-001
6.912258e+002;1.580278e-001
6.932648e+002;1.565048e-001
6.953038e+002;1.560089e-001
6.973429e+002;1.557508e-001
6.993818e+002;1.553511e-001
7.014209e+002;1.552859e-001
7.034599e+002;1.559075e-001
7.054989e+002;1.570681e-001
7.075380e+002;1.588039e-001
7.095769e+002;1.608811e-001
7.116160e+002;1.625996e-001
7.136550e+002;1.638500e-001
7.156940e+002;1.652366e-001
7.177330e+002;1.664753e-001
7.197720e+002;1.659817e-001
7.218110e+002;1.626893e-001
7.238500e+002;1.570680e-001
7.258890e+002;1.509978e-001
7.279281e+002;1.475673e-001
7.299670e+002;1.494476e-001
7.320061e+002;1.570817e-001
7.340451e+002;1.695163e-001
7.360841e+002;1.860177e-001
7.381232e+002;2.052042e-001
7.401621e+002;2.231537e-001
7.422012e+002;2.339382e-001
7.442402e+002;2.334089e-001
7.462792e+002;2.229773e-001
7.483182e+002;2.085518e-001
7.503572e+002;1.951036e-001
7.523962e+002;1.841900e-001
7.544352e+002;1.753759e-001
7.564742e+002;1.677290e-001
7.585133e+002;1.605459e-001
7.605523e+002;1.536051e-001
7.625913e+002;1.473058e-001
7.646304e+002;1.424538e-001
7.666693e+002;1.401006e-001
7.687084e+002;1.407236e-001
7.707474e+002;1.433680e-001
7.727864e+002;1.460604e-001
7.748254e+002;1.466104e-001
7.768644e+002;1.438029e-001
7.789034e+002;1.382144e-001
7.809424e+002;1.315963e-001
7.829814e+002;1.257045e-001
7.850205e+002;1.221323e-001
7.870594e+002;1.219409e-001
7.890985e+002;1.248250e-001
7.911375e+002;1.295128e-001
7.931765e+002;1.343285e-001
7.952156e+002;1.378376e-001
7.972545e+002;1.395354e-001
7.992936e+002;1.398141e-001
8.013326e+002;1.396483e-001
8.033716e+002;1.401833e-001
8.054106e+002;1.421127e-001
8.074496e+002;1.448104e-001
8.094886e+002;1.461811e-001
8.115276e+002;1.440841e-001
8.135667e+002;1.381884e-001
8.156057e+002;1.301852e-001
8.176447e+002;1.228315e-001
8.196837e+002;1.190271e-001
8.217227e+002;1.205731e-001
8.237617e+002;1.281209e-001
8.258008e+002;1.415795e-001
8.278398e+002;1.580897e-001
8.298788e+002;1.716197e-001
8.319178e+002;1.776144e-001
8.339568e+002;1.759131e-001
8.359958e+002;1.680144e-001
8.380349e+002;1.553098e-001
8.400739e+002;1.399157e-001
8.421129e+002;1.237971e-001
8.441519e+002;1.077753e-001
8.461909e+002;9.235191e-002
8.482299e+002;7.847890e-002
8.502689e+002;6.722741e-002
8.523080e+002;5.898319e-002
8.543469e+002;5.342131e-002
8.563860e+002;4.986959e-002
8.584250e+002;4.741907e-002
8.604640e+002;4.558002e-002
8.625031e+002;4.444402e-002
8.645420e+002;4.392668e-002
8.665811e+002;4.373062e-002
8.686201e+002;4.352237e-002
8.706591e+002;4.313450e-002
8.726981e+002;4.263234e-002
8.747371e+002;4.213601e-002
8.767761e+002;4.201797e-002
8.788151e+002;4.239228e-002
8.808541e+002;4.279060e-002
8.828932e+002;4.299221e-002
8.849321e+002;4.333776e-002
8.869712e+002;4.424257e-002
8.890102e+002;4.572276e-002
8.910492e+002;4.738628e-002
8.930883e+002;4.888289e-002
8.951273e+002;5.006052e-002
8.971663e+002;5.092345e-002
8.992053e+002;5.146030e-002
9.012443e+002;5.134013e-002
9.032833e+002;5.038107e-002
9.053223e+002;4.899009e-002
9.073613e+002;4.767722e-002
9.094003e+002;4.675996e-002
9.114393e+002;4.648107e-002
9.134784e+002;4.676042e-002
9.155173e+002;4.717650e-002
9.175564e+002;4.762160e-002
9.195955e+002;4.848364e-002
9.216344e+002;5.003658e-002
9.236735e+002;5.234123e-002
9.257124e+002;5.546021e-002
9.277515e+002;5.916680e-002
9.297905e+002;6.316525e-002
9.318295e+002;6.739639e-002
9.338685e+002;7.131926e-002
9.359075e+002;7.366560e-002
9.379465e+002;7.369278e-002
9.399856e+002;7.182381e-002
9.420245e+002;6.887828e-002
9.440636e+002;6.575816e-002
9.461027e+002;6.345278e-002
9.481416e+002;6.265737e-002
9.501807e+002;6.363676e-002
9.522196e+002;6.636527e-002
9.542587e+002;7.068907e-002
9.562977e+002;7.677232e-002
9.583367e+002;8.547648e-002
9.603757e+002;9.770550e-002
9.624147e+002;1.130904e-001
9.644537e+002;1.296853e-001
9.664928e+002;1.459006e-001
9.685317e+002;1.635033e-001
9.705708e+002;1.875419e-001
9.726097e+002;2.217798e-001
9.746488e+002;2.643551e-001
9.766879e+002;3.080256e-001
9.787268e+002;3.437365e-001
9.807659e+002;3.634666e-001
9.828048e+002;3.620933e-001
9.848439e+002;3.403165e-001
9.868829e+002;3.056774e-001
9.889219e+002;2.688847e-001
9.909609e+002;2.392500e-001
9.929999e+002;2.216244e-001
9.950389e+002;2.142842e-001
9.970780e+002;2.102735e-001
9.991169e+002;2.022036e-001
1.001156e+003;1.870321e-001
1.003195e+003;1.673535e-001
1.005234e+003;1.479529e-001
1.007273e+003;1.321234e-001
1.009312e+003;1.214460e-001
1.011351e+003;1.168386e-001
1.013390e+003;1.185184e-001
1.015429e+003;1.256976e-001
1.017468e+003;1.363228e-001
1.019507e+003;1.466824e-001
1.021546e+003;1.524744e-001
1.023585e+003;1.516158e-001
1.025624e+003;1.450735e-001
1.027663e+003;1.346148e-001
1.029702e+003;1.219839e-001
1.031741e+003;1.096583e-001
1.033780e+003;1.002173e-001
1.035819e+003;9.461652e-002
1.037858e+003;9.161585e-002
1.039897e+003;8.973130e-002
1.041936e+003;8.912586e-002
1.043975e+003;9.063298e-002
1.046014e+003;9.410331e-002
1.048053e+003;9.858096e-002
1.050092e+003;1.035048e-001
1.052131e+003;1.090345e-001
1.054170e+003;1.153884e-001
1.056209e+003;1.225141e-001
1.058248e+003;1.299904e-001
1.060287e+003;1.368749e-001
1.062326e+003;1.421684e-001
1.064365e+003;1.457100e-001
1.066404e+003;1.481216e-001
1.068443e+003;1.501890e-001
1.070482e+003;1.529509e-001
1.072521e+003;1.577869e-001
1.074561e+003;1.657926e-001
1.076599e+003;1.769170e-001
1.078639e+003;1.901276e-001
1.080677e+003;2.045980e-001
1.082717e+003;2.203750e-001
1.084756e+003;2.377841e-001
1.086795e+003;2.567843e-001
1.088834e+003;2.767961e-001
1.090873e+003;2.964270e-001
1.092912e+003;3.141771e-001
1.094951e+003;3.296041e-001
1.096990e+003;3.430905e-001
1.099029e+003;3.548744e-001
1.101068e+003;3.649766e-001
1.103107e+003;3.738209e-001
1.105146e+003;3.822296e-001
1.107185e+003;3.907317e-001
1.109224e+003;3.998502e-001
1.111263e+003;4.105685e-001
1.113302e+003;4.236717e-001
1.115341e+003;4.390681e-001
1.117380e+003;4.553865e-001
1.119419e+003;4.703209e-001
1.121458e+003;4.819601e-001
1.123497e+003;4.895608e-001
1.125536e+003;4.929290e-001
1.127575e+003;4.925025e-001
1.129614e+003;4.898972e-001
1.131653e+003;4.871105e-001
1.133692e+003;4.851380e-001
1.135731e+003;4.837968e-001
1.137770e+003;4.831205e-001
1.139809e+003;4.841549e-001
1.141848e+003;4.879967e-001
1.143887e+003;4.943550e-001
1.145926e+003;5.011016e-001
1.147965e+003;5.043731e-001
1.150004e+003;5.002595e-001
1.152043e+003;4.882369e-001
1.154082e+003;4.714932e-001
1.156121e+003;4.534348e-001
1.158160e+003;4.359518e-001
1.160199e+003;4.199935e-001
1.162238e+003;4.058809e-001
1.164277e+003;3.936856e-001
1.166316e+003;3.837548e-001
1.168355e+003;3.770523e-001
1.170394e+003;3.748315e-001
1.172433e+003;3.775724e-001
1.174472e+003;3.844764e-001
1.176511e+003;3.939994e-001
1.178550e+003;4.038757e-001
1.180589e+003;4.107997e-001
1.182628e+003;4.121447e-001
1.184667e+003;4.080008e-001
1.186706e+003;4.006942e-001
1.188745e+003;3.935960e-001
1.190784e+003;3.898965e-001
1.192823e+003;3.911215e-001
1.194862e+003;3.964987e-001
1.196901e+003;4.033977e-001
1.198940e+003;4.092999e-001
1.200979e+003;4.130274e-001
1.203018e+003;4.136736e-001
1.205057e+003;4.108134e-001
1.207096e+003;4.056847e-001
1.209135e+003;4.006233e-001
1.211174e+003;3.979743e-001
1.213214e+003;3.998741e-001
1.215252e+003;4.083846e-001
1.217292e+003;4.254813e-001
1.219331e+003;4.523998e-001
1.221370e+003;4.884072e-001
1.223409e+003;5.295123e-001
1.225448e+003;5.675063e-001
1.227487e+003;5.931272e-001
1.229526e+003;6.027773e-001
1.231565e+003;5.993938e-001
1.233604e+003;5.871499e-001
1.235643e+003;5.686106e-001
1.237682e+003;5.454405e-001
1.239721e+003;5.194179e-001
1.241760e+003;4.922678e-001
1.243799e+003;4.650071e-001
1.245838e+003;4.389398e-001
1.247877e+003;4.152326e-001
1.249916e+003;3.938840e-001
1.251955e+003;3.743470e-001
1.253994e+003;3.561836e-001
1.256033e+003;3.391116e-001
1.258072e+003;3.228375e-001
1.260111e+003;3.071289e-001
1.262150e+003;2.924451e-001
1.264189e+003;2.795654e-001
1.266228e+003;2.684320e-001
1.268267e+003;2.585434e-001
1.270306e+003;2.491883e-001
1.272345e+003;2.397773e-001
1.274384e+003;2.303723e-001
1.276423e+003;2.212829e-001
1.278462e+003;2.128591e-001
1.280501e+003;2.054079e-001
1.282540e+003;1.991033e-001
1.284579e+003;1.941483e-001
1.286618e+003;1.906486e-001
1.288657e+003;1.883170e-001
1.290696e+003;1.867647e-001
1.292735e+003;1.858753e-001
1.294774e+003;1.856339e-001
1.296813e+003;1.858869e-001
1.298852e+003;1.867085e-001
1.300891e+003;1.882515e-001
1.302930e+003;1.899628e-001
1.304969e+003;1.906548e-001
1.307008e+003;1.887822e-001
1.309047e+003;1.832266e-001
1.311086e+003;1.740544e-001
1.313125e+003;1.619373e-001
1.315164e+003;1.483703e-001
1.317203e+003;1.347406e-001
1.319242e+003;1.213232e-001
1.321281e+003;1.089835e-001
1.323320e+003;9.845854e-002
1.325359e+003;8.957747e-002
1.327398e+003;8.231810e-002
1.329437e+003;7.673226e-002
1.331476e+003;7.270233e-002
1.333515e+003;7.013042e-002
1.335554e+003;6.898060e-002
1.337593e+003;6.880429e-002
1.339632e+003;6.802522e-002
1.341671e+003;6.600170e-002
1.343710e+003;6.428081e-002
1.345749e+003;6.337603e-002
1.347788e+003;6.264795e-002
1.349827e+003;6.178703e-002
1.351866e+003;6.120208e-002
1.353906e+003;6.139158e-002
1.355944e+003;6.223360e-002
1.357984e+003;6.374054e-002
1.360022e+003;6.630020e-002
1.362062e+003;6.888525e-002
1.364101e+003;6.957277e-002
1.366140e+003;6.976757e-002
1.368179e+003;7.067548e-002
1.370218e+003;7.072105e-002
1.372257e+003;6.864085e-002
1.374296e+003;6.397089e-002
1.376335e+003;5.929476e-002
1.378374e+003;5.821486e-002
1.380413e+003;6.058046e-002
1.382452e+003;6.463397e-002
1.384491e+003;6.922745e-002
1.386530e+003;7.340733e-002
1.388569e+003;7.473937e-002
1.390608e+003;7.288091e-002
1.392647e+003;6.973311e-002
1.394686e+003;6.583217e-002
1.396725e+003;6.206258e-002
1.398764e+003;5.900490e-002
1.400803e+003;5.669757e-002
1.402842e+003;5.529680e-002
1.404881e+003;5.286747e-002
1.406920e+003;4.841195e-002
1.408959e+003;4.434187e-002
1.410998e+003;4.187068e-002
1.413037e+003;4.094261e-002
1.415076e+003;4.183861e-002
1.417115e+003;4.437762e-002
1.419154e+003;4.664062e-002
1.421193e+003;4.763556e-002
1.423232e+003;4.911123e-002
1.425271e+003;5.079025e-002
1.427310e+003;5.226505e-002
1.429349e+003;5.394159e-002
1.431388e+003;5.538439e-002
1.433427e+003;5.724296e-002
1.435466e+003;6.054133e-002
1.437505e+003;6.357761e-002
1.439544e+003;6.491033e-002
1.441583e+003;6.650443e-002
1.443622e+003;6.899808e-002
1.445661e+003;7.209291e-002
1.447700e+003;7.521748e-002
1.449739e+003;7.772981e-002
1.451778e+003;8.080433e-002
1.453817e+003;8.574029e-002
1.455856e+003;9.413865e-002
1.457895e+003;1.041963e-001
1.459934e+003;1.087233e-001
1.461973e+003;1.124080e-001
1.464012e+003;1.181778e-001
1.466051e+003;1.239782e-001
1.468090e+003;1.280081e-001
1.470129e+003;1.316188e-001
1.472168e+003;1.322420e-001
1.474207e+003;1.246812e-001
1.476246e+003;1.135831e-001
1.478285e+003;1.038146e-001
1.480324e+003;9.486370e-002
1.482363e+003;8.499529e-002
1.484402e+003;7.582030e-002
1.486441e+003;6.880533e-002
1.488480e+003;6.274254e-002
1.490519e+003;5.595140e-002
1.492558e+003;5.150845e-002
1.494597e+003;5.103401e-002
1.496636e+003;5.282309e-002
1.498675e+003;5.404304e-002
1.500714e+003;5.455227e-002
1.502754e+003;5.604269e-002
1.504792e+003;6.018979e-002
1.506832e+003;6.783664e-002
1.508870e+003;6.972083e-002
1.510910e+003;6.849371e-002
1.512949e+003;6.941903e-002
1.514988e+003;7.286919e-002
1.517027e+003;7.735950e-002
1.519066e+003;8.108069e-002
1.521105e+003;8.495289e-002
1.523144e+003;8.803043e-002
1.525183e+003;9.019542e-002
1.527222e+003;9.252740e-002
1.529261e+003;9.491442e-002
1.531300e+003;9.890473e-002
1.533339e+003;1.048160e-001
1.535378e+003;1.094051e-001
1.537417e+003;1.138536e-001
1.539456e+003;1.231961e-001
1.541495e+003;1.338086e-001
1.543534e+003;1.379468e-001
1.545573e+003;1.409241e-001
1.547612e+003;1.453779e-001
1.549651e+003;1.523817e-001
1.551690e+003;1.603160e-001
1.553729e+003;1.686808e-001
1.555768e+003;1.779395e-001
1.557807e+003;1.897213e-001
1.559846e+003;2.015746e-001
1.561885e+003;2.054533e-001
1.563924e+003;2.088630e-001
1.565963e+003;2.125973e-001
1.568002e+003;2.147757e-001
1.570041e+003;2.141942e-001
1.572080e+003;2.128118e-001
1.574119e+003;2.131980e-001
1.576158e+003;2.130615e-001
1.578197e+003;2.095968e-001
1.580236e+003;2.059100e-001
1.582275e+003;2.022527e-001
1.584314e+003;1.979284e-001
1.586353e+003;1.929500e-001
1.588392e+003;1.873817e-001
1.590431e+003;1.812691e-001
1.592470e+003;1.748340e-001
1.594509e+003;1.679576e-001
1.596548e+003;1.606381e-001
1.598587e+003;1.538156e-001
1.600626e+003;1.476000e-001
1.602665e+003;1.411132e-001
1.604704e+003;1.338718e-001
1.606743e+003;1.259107e-001
1.608782e+003;1.166526e-001
1.610821e+003;1.070551e-001
1.612860e+003;9.970626e-002
1.614899e+003;9.448757e-002
1.616938e+003;8.813281e-002
1.618977e+003;8.244572e-002
1.621016e+003;8.013631e-002
1.623055e+003;7.886174e-002
1.625094e+003;7.728913e-002
1.627133e+003;7.617178e-002
1.629172e+003;7.527864e-002
1.631211e+003;7.485715e-002
1.633250e+003;7.578024e-002
1.635289e+003;7.665192e-002
1.637328e+003;7.377704e-002
1.639367e+003;6.999044e-002
1.641406e+003;6.760051e-002
1.643445e+003;6.699155e-002
1.645484e+003;6.782811e-002
1.647524e+003;6.681111e-002
1.649563e+003;6.445797e-002
1.651602e+003;6.404111e-002
1.653641e+003;6.203027e-002
1.655680e+003;5.777027e-002
1.657719e+003;5.574148e-002
1.659758e+003;5.545294e-002
1.661797e+003;5.553039e-002
1.663836e+003;5.423763e-002
1.665875e+003;5.307411e-002
1.667914e+003;5.310099e-002
1.669953e+003;5.189290e-002
1.671992e+003;4.887122e-002
1.674031e+003;4.583381e-002
1.676070e+003;4.238960e-002
1.678109e+003;4.014225e-002
1.680148e+003;3.970100e-002
1.682187e+003;4.007079e-002
1.684226e+003;3.825209e-002
1.686265e+003;3.397343e-002
1.688304e+003;3.101156e-002
1.690343e+003;2.843442e-002
1.692382e+003;2.689735e-002
1.694421e+003;2.734309e-002
1.696460e+003;2.869116e-002
1.698499e+003;2.859549e-002
1.700538e+003;2.606110e-002
1.702577e+003;2.359794e-002
1.704616e+003;2.233543e-002
1.706655e+003;2.047545e-002
1.708694e+003;1.852493e-002
1.710733e+003;1.782311e-002
1.712772e+003;1.869367e-002
1.714811e+003;2.091696e-002
1.716850e+003;2.152429e-002
1.718889e+003;1.801235e-002
1.720928e+003;1.521314e-002
1.722967e+003;1.413513e-002
1.725006e+003;1.345293e-002
1.727045e+003;1.349531e-002
1.729084e+003;1.484232e-002
1.731123e+003;1.691941e-002
1.733162e+003;1.826335e-002
1.735201e+003;1.665341e-002
1.737240e+003;1.501030e-002
1.739279e+003;1.481109e-002
1.741318e+003;1.496574e-002
1.743357e+003;1.528663e-002
1.745396e+003;1.606196e-002
1.747435e+003;1.730082e-002
1.749474e+003;1.766927e-002
1.751513e+003;1.557473e-002
1.753552e+003;1.350473e-002
1.755591e+003;1.311904e-002
1.757630e+003;1.340776e-002
1.759669e+003;1.374428e-002
1.761708e+003;1.385939e-002
1.763747e+003;1.323359e-002
1.765786e+003;1.314863e-002
1.767825e+003;1.424850e-002
1.769864e+003;1.581012e-002
1.771903e+003;1.653973e-002
1.773942e+003;1.525081e-002
1.775981e+003;1.380838e-002
1.778020e+003;1.349696e-002
1.780059e+003;1.363127e-002
1.782099e+003;1.331678e-002
1.784137e+003;1.278911e-002
1.786177e+003;1.242693e-002
1.788215e+003;1.285214e-002
1.790255e+003;1.442720e-002
1.792294e+003;1.534562e-002
1.794333e+003;1.440836e-002
1.796372e+003;1.355764e-002
1.798411e+003;1.349459e-002
1.800450e+003;1.357598e-002
1.802489e+003;1.280705e-002
1.804528e+003;1.173148e-002
1.806567e+003;1.147281e-002
1.808606e+003;1.196480e-002
1.810645e+003;1.226093e-002
1.812684e+003;1.180768e-002
1.814723e+003;1.130001e-002
1.816762e+003;1.124833e-002
1.818801e+003;1.131852e-002
1.820840e+003;1.146136e-002
1.822879e+003;1.198239e-002
1.824918e+003;1.260016e-002
1.826957e+003;1.331483e-002
1.828996e+003;1.418316e-002
1.831035e+003;1.373324e-002
1.833074e+003;1.250235e-002
1.835113e+003;1.211011e-002
1.837152e+003;1.220893e-002
1.839191e+003;1.237525e-002
1.841230e+003;1.324832e-002
1.843269e+003;1.478679e-002
1.845308e+003;1.530988e-002
1.847347e+003;1.456980e-002
1.849386e+003;1.366250e-002
1.851425e+003;1.323452e-002
1.853464e+003;1.358659e-002
1.855503e+003;1.441818e-002
1.857542e+003;1.534691e-002
1.859581e+003;1.611375e-002
1.861620e+003;1.685956e-002
1.863659e+003;1.810752e-002
1.865698e+003;2.026962e-002
1.867737e+003;2.291571e-002
1.869776e+003;2.427664e-002
1.871815e+003;2.454905e-002
1.873854e+003;2.547971e-002
1.875893e+003;2.709948e-002
1.877932e+003;2.920561e-002
1.879971e+003;3.196812e-002
1.882010e+003;3.529213e-002
1.884049e+003;3.914559e-002
1.886088e+003;4.365508e-002
1.888127e+003;4.958122e-002
1.890166e+003;5.698280e-002
1.892205e+003;6.514603e-002
1.894244e+003;7.522126e-002
1.896283e+003;8.784935e-002
1.898322e+003;1.024344e-001
1.900361e+003;1.196457e-001
1.902400e+003;1.391848e-001
1.904439e+003;1.596246e-001
1.906478e+003;1.803565e-001
1.908517e+003;2.005102e-001
1.910556e+003;2.178276e-001
1.912595e+003;2.303563e-001
1.914634e+003;2.382757e-001
1.916673e+003;2.410795e-001
1.918712e+003;2.374216e-001
1.920751e+003;2.283594e-001
1.922790e+003;2.142114e-001
1.924829e+003;1.959748e-001
1.926868e+003;1.769122e-001
1.928907e+003;1.580415e-001
1.930947e+003;1.394765e-001
1.932985e+003;1.214959e-001
1.935025e+003;1.044840e-001
1.937064e+003;8.892390e-002
1.939103e+003;7.525478e-002
1.941142e+003;6.310947e-002
1.943181e+003;5.195746e-002
1.945220e+003;4.214434e-002
1.947259e+003;3.366169e-002
1.949298e+003;2.645872e-002
1.951337e+003;2.062481e-002
1.953376e+003;1.575123e-002
1.955415e+003;1.169536e-002
1.957454e+003;8.723177e-003
1.959493e+003;6.643610e-003
1.961532e+003;5.135841e-003
1.963571e+003;3.977077e-003
1.965610e+003;3.280540e-003
1.967649e+003;3.226944e-003
1.969688e+003;3.607787e-003
1.971727e+003;3.813153e-003
1.973766e+003;3.854076e-003
1.975805e+003;3.966784e-003
1.977844e+003;3.869485e-003
1.979883e+003;3.619898e-003
1.981922e+003;3.397587e-003
1.983961e+003;3.539771e-003
1.986000e+003;4.045972e-003
1.988039e+003;4.447513e-003
1.990078e+003;4.731020e-003
1.992117e+003;4.976323e-003
1.994156e+003;4.671724e-003
1.996195e+003;3.953932e-003
1.998234e+003;3.554020e-003
2.000273e+003;3.679573e-003
2.002312e+003;3.681583e-003
2.004351e+003;3.039320e-003
2.006390e+003;2.508696e-003
2.008429e+003;2.789976e-003
2.010468e+003;3.632715e-003
2.012507e+003;4.279674e-003
2.014546e+003;4.495009e-003
2.016585e+003;4.924141e-003
2.018624e+003;5.699113e-003
2.020663e+003;5.791917e-003
2.022702e+003;4.907412e-003
2.024741e+003;4.359258e-003
2.026780e+003;4.743895e-003
2.028819e+003;5.226691e-003
2.030858e+003;5.165756e-003
2.032897e+003;4.955953e-003
2.034936e+003;4.867568e-003
2.036975e+003;4.874609e-003
2.039014e+003;5.531287e-003
2.041053e+003;6.457421e-003
2.043092e+003;6.698575e-003
2.045131e+003;6.441394e-003
2.047170e+003;6.207524e-003
2.049209e+003;6.204531e-003
2.051248e+003;6.194421e-003
2.053287e+003;6.031443e-003
2.055326e+003;6.192347e-003
2.057365e+003;6.762566e-003
2.059405e+003;7.235346e-003
2.061443e+003;7.425503e-003
2.063482e+003;7.730987e-003
2.065521e+003;7.968948e-003
2.067561e+003;7.611819e-003
2.069600e+003;7.135181e-003
2.071638e+003;7.010362e-003
2.073677e+003;7.147681e-003
2.075717e+003;7.194788e-003
2.077756e+003;6.949017e-003
2.079795e+003;6.719790e-003
2.081834e+003;6.696209e-003
2.083873e+003;6.765563e-003
2.085912e+003;6.881607e-003
2.087951e+003;7.016859e-003
2.089990e+003;7.051140e-003
2.092029e+003;6.983003e-003
2.094068e+003;6.930500e-003
2.096107e+003;6.927633e-003
2.098146e+003;6.868010e-003
2.100185e+003;6.672603e-003
2.102224e+003;6.510759e-003
2.104263e+003;6.579689e-003
2.106302e+003;6.734749e-003
2.108341e+003;6.855702e-003
2.110380e+003;7.038774e-003
2.112419e+003;7.017701e-003
2.114458e+003;6.658619e-003
2.116497e+003;6.387485e-003
2.118536e+003;6.295867e-003
2.120575e+003;6.141384e-003
2.122614e+003;6.079663e-003
2.124653e+003;6.257418e-003
2.126692e+003;6.152804e-003
2.128731e+003;5.354694e-003
2.130770e+003;4.441446e-003
2.132809e+003;4.077327e-003
2.134848e+003;4.217459e-003
2.136887e+003;4.494329e-003
2.138926e+003;4.453555e-003
2.140965e+003;4.193595e-003
2.143004e+003;4.214924e-003
2.145043e+003;4.576752e-003
2.147082e+003;4.978418e-003
2.149121e+003;4.848197e-003
2.151160e+003;4.093998e-003
2.153199e+003;3.116462e-003
2.155238e+003;2.319821e-003
2.157277e+003;2.618243e-003
2.159316e+003;4.283726e-003
2.161355e+003;5.799893e-003
2.163394e+003;5.966983e-003
2.165433e+003;5.244900e-003
2.167472e+003;4.768601e-003
2.169511e+003;4.717228e-003
2.171550e+003;4.324850e-003
2.173589e+003;3.810959e-003
2.175628e+003;3.939408e-003
2.177667e+003;4.233848e-003
2.179706e+003;3.850603e-003
2.181745e+003;3.026182e-003
2.183784e+003;2.605222e-003
2.185823e+003;2.988517e-003
2.187862e+003;3.635952e-003
2.189901e+003;3.672525e-003
2.191940e+003;3.141987e-003
2.193979e+003;3.005251e-003
2.196018e+003;3.581451e-003
2.198057e+003;4.112264e-003
2.200096e+003;4.404521e-003
2.202135e+003;4.739001e-003
2.204175e+003;4.777473e-003
2.206213e+003;4.500999e-003
2.208252e+003;4.253088e-003
2.210292e+003;4.019740e-003
2.212331e+003;3.815347e-003
2.214370e+003;3.538414e-003
2.216408e+003;3.259075e-003
2.218448e+003;3.473461e-003
2.220487e+003;3.844100e-003
2.222526e+003;3.912373e-003
2.224565e+003;3.920548e-003
2.226604e+003;3.878417e-003
2.228643e+003;3.915089e-003
2.230682e+003;4.024939e-003
2.232721e+003;4.112081e-003
2.234760e+003;4.292823e-003
2.236799e+003;4.200522e-003
2.238838e+003;3.788319e-003
2.240877e+003;3.584922e-003
2.242916e+003;3.770354e-003
2.244955e+003;4.070951e-003
2.246994e+003;4.340720e-003
2.249033e+003;4.605189e-003
2.251072e+003;4.670337e-003
2.253111e+003;4.612253e-003
2.255150e+003;4.827098e-003
2.257189e+003;5.147812e-003
2.259228e+003;5.210972e-003
2.261267e+003;5.227268e-003
2.263306e+003;5.290727e-003
2.265345e+003;5.292692e-003
2.267384e+003;5.268036e-003
2.269423e+003;5.203532e-003
2.271462e+003;5.186372e-003
2.273501e+003;5.271913e-003
2.275540e+003;5.473927e-003
2.277579e+003;5.673149e-003
2.279618e+003;5.729355e-003
2.281657e+003;5.832608e-003
2.283696e+003;6.059214e-003
2.285735e+003;6.294002e-003
2.287774e+003;6.498646e-003
2.289813e+003;6.676309e-003
2.291852e+003;6.823015e-003
2.293891e+003;6.940890e-003
2.295930e+003;6.985265e-003
2.297969e+003;6.931736e-003
2.300008e+003;6.986186e-003
2.302047e+003;7.266248e-003
2.304086e+003;7.591429e-003
2.306125e+003;7.809573e-003
2.308164e+003;7.954184e-003
2.310203e+003;8.080356e-003
2.312242e+003;8.080356e-003
2.314281e+003;7.933119e-003
2.316320e+003;7.812841e-003
2.318359e+003;7.799163e-003
2.320398e+003;7.913690e-003
2.322437e+003;8.053457e-003
2.324476e+003;7.866663e-003
2.326515e+003;7.290939e-003
2.328554e+003;6.773451e-003
2.330593e+003;6.588888e-003
2.332632e+003;6.443679e-003
2.334671e+003;6.119146e-003
2.336710e+003;5.840557e-003
2.338750e+003;5.872934e-003
2.340788e+003;6.108067e-003
2.342827e+003;6.258075e-003
2.344866e+003;6.588941e-003
2.346906e+003;7.216001e-003
2.348945e+003;7.536640e-003
2.350983e+003;7.233715e-003
2.353022e+003;6.461651e-003
2.355062e+003;5.600770e-003
2.357101e+003;4.934928e-003
2.359140e+003;4.632686e-003
2.361178e+003;4.595378e-003
2.363218e+003;4.512245e-003
2.365257e+003;4.561605e-003
2.367296e+003;4.899532e-003
2.369335e+003;5.287268e-003
2.371374e+003;5.669765e-003
2.373413e+003;6.070266e-003
2.375452e+003;6.540847e-003
2.377491e+003;7.033012e-003
2.379530e+003;7.300627e-003
2.381569e+003;7.387112e-003
2.383608e+003;7.430770e-003
2.385647e+003;7.355781e-003
2.387686e+003;7.200815e-003
2.389725e+003;7.056112e-003
2.391764e+003;6.958355e-003
2.393803e+003;6.911826e-003
2.395842e+003;6.814654e-003
2.397881e+003;6.739482e-003
2.399920e+003;6.774476e-003
2.401959e+003;6.772346e-003
2.403998e+003;6.715505e-003
2.406037e+003;6.756071e-003
2.408076e+003;6.876662e-003
2.410115e+003;6.872613e-003
2.412154e+003;6.702045e-003
2.414193e+003;6.523530e-003
2.416232e+003;6.434353e-003
2.418271e+003;6.427259e-003
2.420310e+003;6.479622e-003
2.422349e+003;6.635593e-003
2.424388e+003;6.884079e-003
2.426427e+003;7.004337e-003
2.428466e+003;6.782522e-003
2.430505e+003;6.456448e-003
2.432544e+003;6.511127e-003
2.434583e+003;6.937996e-003
2.436622e+003;7.317502e-003
2.438661e+003;7.362863e-003
2.440700e+003;7.099605e-003
2.442739e+003;6.805188e-003
2.444778e+003;6.690426e-003
2.446817e+003;6.735827e-003
2.448856e+003;6.850732e-003
2.450895e+003;7.019359e-003
2.452934e+003;7.260115e-003
2.454973e+003;7.406307e-003
2.457012e+003;7.269802e-003
2.459051e+003;7.054849e-003
2.461090e+003;7.035617e-003
2.463129e+003;7.100184e-003
2.465168e+003;7.086027e-003
2.467207e+003;7.028777e-003
2.469246e+003;7.007441e-003
2.471285e+003;7.004574e-003
2.473324e+003;6.949570e-003
2.475363e+003;6.878635e-003
2.477402e+003;6.829800e-003
2.479441e+003;6.811130e-003
2.481480e+003;6.760436e-003
2.483519e+003;6.595038e-003
2.485558e+003;6.521507e-003
2.487597e+003;6.678018e-003
2.489636e+003;6.790252e-003
2.491676e+003;6.752654e-003
2.493714e+003;6.687192e-003
2.495753e+003;6.536643e-003
2.497792e+003;6.437716e-003
2.499832e+003;6.540322e-003
2.501871e+003;6.634200e-003
2.503909e+003;6.655780e-003
2.505948e+003;6.689059e-003
2.507988e+003;6.693344e-003
2.510027e+003;6.680594e-003
2.512066e+003;6.736143e-003
2.514104e+003;6.853152e-003
2.516144e+003;6.989132e-003
2.518183e+003;7.207763e-003
2.520222e+003;7.519020e-003
2.522261e+003;7.672255e-003
2.524300e+003;7.565877e-003
2.526339e+003;7.403595e-003
2.528378e+003;7.383426e-003
2.530417e+003;7.606629e-003
2.532456e+003;7.781057e-003
2.534495e+003;7.698524e-003
2.536534e+003;7.683848e-003
2.538573e+003;7.771201e-003
2.540612e+003;7.661980e-003
2.542651e+003;7.538695e-003
2.544690e+003;7.654339e-003
2.546729e+003;7.810653e-003
2.548768e+003;7.893366e-003
2.550807e+003;7.984926e-003
2.552846e+003;8.204244e-003
2.554885e+003;8.436790e-003
2.556924e+003;8.405778e-003
2.558963e+003;8.160587e-003
2.561002e+003;7.973641e-003
2.563041e+003;8.072788e-003
2.565080e+003;8.280355e-003
2.567119e+003;8.303653e-003
2.569158e+003;8.293337e-003
2.571197e+003;8.408365e-003
2.573236e+003;8.558878e-003
2.575275e+003;8.667321e-003
2.577314e+003;8.659346e-003
2.579353e+003;8.627685e-003
2.581392e+003;8.755981e-003
2.583431e+003;8.900961e-003
2.585470e+003;8.925428e-003
2.587509e+003;8.905848e-003
2.589548e+003;8.907856e-003
2.591587e+003;8.940331e-003
2.593626e+003;8.951641e-003
2.595665e+003;9.005128e-003
2.597704e+003;9.138850e-003
2.599743e+003;9.169940e-003
2.601782e+003;9.088095e-003
2.603821e+003;9.050826e-003
2.605860e+003;9.025690e-003
2.607899e+003;9.000821e-003
2.609938e+003;9.057222e-003
2.611977e+003;9.093355e-003
2.614016e+003;8.997993e-003
2.616055e+003;8.910473e-003
2.618094e+003;8.951773e-003
2.620133e+003;8.993738e-003
2.622172e+003;8.986946e-003
2.624211e+003;9.013374e-003
2.626250e+003;9.019955e-003
2.628289e+003;9.018211e-003
2.630328e+003;9.093725e-003
2.632367e+003;9.232922e-003
2.634406e+003;9.393401e-003
2.636446e+003;9.490597e-003
2.638484e+003;9.461626e-003
2.640523e+003;9.425146e-003
2.642563e+003;9.482051e-003
2.644602e+003;9.496313e-003
2.646641e+003;9.487264e-003
2.648679e+003;9.539071e-003
2.650719e+003;9.560160e-003
2.652758e+003;9.595833e-003
2.654797e+003;9.643101e-003
2.656836e+003;9.620260e-003
2.658875e+003;9.577996e-003
2.660914e+003;9.572413e-003
2.662953e+003;9.612665e-003
2.664992e+003;9.660067e-003
2.667031e+003;9.636828e-003
2.669070e+003;9.543411e-003
2.671109e+003;9.478162e-003
2.673148e+003;9.489195e-003
2.675187e+003;9.592869e-003
2.677226e+003;9.744084e-003
2.679265e+003;9.781996e-003
2.681304e+003;9.706256e-003
2.683343e+003;9.669013e-003
2.685382e+003;9.694688e-003
2.687421e+003;9.724231e-003
2.689460e+003;9.745488e-003
2.691499e+003;9.830979e-003
2.693538e+003;9.978781e-003
2.695577e+003;1.004440e-002
2.697616e+003;1.001640e-002
2.699655e+003;1.004018e-002
2.701694e+003;1.020828e-002
2.703733e+003;1.042514e-002
2.705772e+003;1.054787e-002
2.707811e+003;1.068995e-002
2.709850e+003;1.097918e-002
2.711889e+003;1.122605e-002
2.713928e+003;1.134310e-002
2.715967e+003;1.144897e-002
2.718006e+003;1.147223e-002
2.720045e+003;1.143712e-002
2.722084e+003;1.153469e-002
2.724123e+003;1.167401e-002
2.726162e+003;1.163415e-002
2.728201e+003;1.144802e-002
2.730240e+003;1.131518e-002
2.732279e+003;1.129825e-002
2.734318e+003;1.128736e-002
2.736357e+003;1.126071e-002
2.738396e+003;1.128946e-002
2.740435e+003;1.127700e-002
2.742474e+003;1.120132e-002
2.744513e+003;1.128855e-002
2.746552e+003;1.153589e-002
2.748591e+003;1.170305e-002
2.750630e+003;1.171212e-002
2.752669e+003;1.164330e-002
2.754708e+003;1.160009e-002
2.756747e+003;1.159991e-002
2.758786e+003;1.162001e-002
2.760825e+003;1.172555e-002
2.762864e+003;1.191646e-002
2.764903e+003;1.206824e-002
2.766942e+003;1.214807e-002
2.768981e+003;1.221367e-002
2.771021e+003;1.233959e-002
2.773059e+003;1.258723e-002
2.775098e+003;1.287016e-002
2.777137e+003;1.311541e-002
2.779177e+003;1.330736e-002
2.781216e+003;1.343074e-002
2.783254e+003;1.358563e-002
2.785293e+003;1.378259e-002
2.787333e+003;1.393608e-002
2.789372e+003;1.408205e-002
2.791411e+003;1.430733e-002
2.793449e+003;1.454501e-002
2.795489e+003;1.466634e-002
2.797528e+003;1.470091e-002
2.799567e+003;1.474662e-002
2.801606e+003;1.489450e-002
2.803645e+003;1.517628e-002
2.805684e+003;1.546457e-002
2.807723e+003;1.563580e-002
2.809762e+003;1.576873e-002
2.811801e+003;1.595069e-002
2.813840e+003;1.614663e-002
2.815879e+003;1.635966e-002
2.817918e+003;1.665067e-002
2.819957e+003;1.696831e-002
2.821996e+003;1.717269e-002
2.824035e+003;1.731871e-002
2.826074e+003;1.755373e-002
2.828113e+003;1.791414e-002
2.830152e+003;1.835267e-002
2.832191e+003;1.880137e-002
2.834230e+003;1.927674e-002
2.836269e+003;1.979599e-002
2.838308e+003;2.035971e-002
2.840347e+003;2.104233e-002
2.842386e+003;2.183852e-002
2.844425e+003;2.263986e-002
2.846464e+003;2.354410e-002
2.848503e+003;2.475431e-002
2.850542e+003;2.625644e-002
2.852581e+003;2.800672e-002
2.854620e+003;3.010713e-002
2.856659e+003;3.258592e-002
2.858698e+003;3.530421e-002
2.860737e+003;3.820723e-002
2.862776e+003;4.125576e-002
2.864815e+003;4.416252e-002
2.866854e+003;4.653097e-002
2.868893e+003;4.809070e-002
2.870932e+003;4.886388e-002
2.872971e+003;4.903182e-002
2.875010e+003;4.873146e-002
2.877049e+003;4.817489e-002
2.879088e+003;4.753117e-002
2.881127e+003;4.686430e-002
2.883166e+003;4.629289e-002
2.885205e+003;4.592061e-002
2.887244e+003;4.578808e-002
2.889283e+003;4.587432e-002
2.891322e+003;4.616108e-002
2.893361e+003;4.668417e-002
2.895400e+003;4.736999e-002
2.897439e+003;4.797693e-002
2.899478e+003;4.834560e-002
2.901517e+003;4.849409e-002
2.903556e+003;4.837485e-002
2.905595e+003;4.789377e-002
2.907634e+003;4.716810e-002
2.909673e+003;4.643633e-002
2.911712e+003;4.570956e-002
2.913751e+003;4.488743e-002
2.915791e+003;4.408278e-002
2.917829e+003;4.345728e-002
2.919868e+003;4.313056e-002
2.921907e+003;4.312939e-002
2.923947e+003;4.326023e-002
2.925986e+003;4.348154e-002
2.928024e+003;4.397624e-002
2.930063e+003;4.474043e-002
2.932103e+003;4.556222e-002
2.934142e+003;4.641297e-002
2.936181e+003;4.749585e-002
2.938219e+003;4.870334e-002
2.940259e+003;4.982657e-002
2.942298e+003;5.098338e-002
2.944337e+003;5.216291e-002
2.946376e+003;5.307522e-002
2.948415e+003;5.349336e-002
2.950454e+003;5.348601e-002
2.952493e+003;5.320593e-002
2.954532e+003;5.267829e-002
2.956571e+003;5.204435e-002
2.958610e+003;5.143661e-002
2.960649e+003;5.085398e-002
2.962688e+003;5.037514e-002
2.964727e+003;4.994884e-002
2.966766e+003;4.937627e-002
2.968805e+003;4.862163e-002
2.970844e+003;4.777938e-002
2.972883e+003;4.691632e-002
2.974922e+003;4.607564e-002
2.976961e+003;4.546291e-002
2.979000e+003;4.527551e-002
2.981039e+003;4.527931e-002
2.983078e+003;4.514493e-002
2.985117e+003;4.486805e-002
2.987156e+003;4.438969e-002
2.989195e+003;4.359417e-002
2.991234e+003;4.255136e-002
2.993273e+003;4.119522e-002
2.995312e+003;3.954256e-002
2.997351e+003;3.783811e-002
2.999390e+003;3.617790e-002
3.001429e+003;3.461583e-002
3.003468e+003;3.319159e-002
3.005507e+003;3.186617e-002
3.007546e+003;3.074614e-002
3.009585e+003;2.995609e-002
3.011624e+003;2.930382e-002
3.013663e+003;2.851435e-002
3.015702e+003;2.753950e-002
3.017741e+003;2.650712e-002
3.019780e+003;2.563005e-002
3.021819e+003;2.496329e-002
3.023858e+003;2.443594e-002
3.025897e+003;2.402895e-002
3.027936e+003;2.378854e-002
3.029975e+003;2.377672e-002
3.032014e+003;2.384030e-002
3.034053e+003;2.379841e-002
3.036092e+003;2.375469e-002
3.038131e+003;2.386565e-002
3.040170e+003;2.409388e-002
3.042209e+003;2.427993e-002
3.044248e+003;2.437868e-002
3.046287e+003;2.443862e-002
3.048326e+003;2.439358e-002
3.050365e+003;2.423723e-002
3.052404e+003;2.418317e-002
3.054443e+003;2.428792e-002
3.056482e+003;2.444174e-002
3.058521e+003;2.472044e-002
3.060561e+003;2.517890e-002
3.062599e+003;2.565117e-002
3.064638e+003;2.605129e-002
3.066677e+003;2.642345e-002
3.068717e+003;2.671507e-002
3.070756e+003;2.692219e-002
3.072794e+003;2.717666e-002
3.074833e+003;2.756322e-002
3.076873e+003;2.792978e-002
3.078912e+003;2.803234e-002
3.080951e+003;2.793096e-002
3.082990e+003;2.776368e-002
3.085029e+003;2.756912e-002
3.087068e+003;2.749157e-002
3.089107e+003;2.751898e-002
3.091146e+003;2.747477e-002
3.093185e+003;2.742643e-002
3.095224e+003;2.746865e-002
3.097263e+003;2.740920e-002
3.099302e+003;2.717443e-002
3.101341e+003;2.701413e-002
3.103380e+003;2.704303e-002
3.105419e+003;2.714156e-002
3.107458e+003;2.724540e-002
3.109497e+003;2.732216e-002
3.111536e+003;2.745817e-002
3.113575e+003;2.784539e-002
3.115614e+003;2.836884e-002
3.117653e+003;2.872122e-002
3.119692e+003;2.880409e-002
3.121731e+003;2.876830e-002
3.123770e+003;2.887087e-002
3.125809e+003;2.918285e-002
3.127848e+003;2.951708e-002
3.129887e+003;2.972513e-002
3.131926e+003;2.986073e-002
3.133965e+003;3.005509e-002
3.136004e+003;3.038827e-002
3.138043e+003;3.076667e-002
3.140082e+003;3.099316e-002
3.142121e+003;3.114306e-002
3.144160e+003;3.143152e-002
3.146199e+003;3.182261e-002
3.148238e+003;3.223056e-002
3.150277e+003;3.256553e-002
3.152316e+003;3.272574e-002
3.154355e+003;3.288235e-002
3.156394e+003;3.312825e-002
3.158433e+003;3.333023e-002
3.160472e+003;3.358930e-002
3.162511e+003;3.402002e-002
3.164550e+003;3.434292e-002
3.166589e+003;3.440907e-002
3.168628e+003;3.463041e-002
3.170667e+003;3.516274e-002
3.172706e+003;3.561894e-002
3.174745e+003;3.586231e-002
3.176784e+003;3.608717e-002
3.178823e+003;3.635535e-002
3.180862e+003;3.669695e-002
3.182901e+003;3.721156e-002
3.184940e+003;3.774848e-002
3.186979e+003;3.810709e-002
3.189018e+003;3.837946e-002
3.191057e+003;3.870535e-002
3.193096e+003;3.902252e-002
3.195135e+003;3.927588e-002
3.197174e+003;3.955035e-002
3.199213e+003;3.985646e-002
3.201252e+003;4.017195e-002
3.203292e+003;4.047676e-002
3.205331e+003;4.070109e-002
3.207369e+003;4.088123e-002
3.209408e+003;4.116087e-002
3.211448e+003;4.154025e-002
3.213487e+003;4.182944e-002
3.215526e+003;4.206220e-002
3.217564e+003;4.240079e-002
3.219604e+003;4.259885e-002
3.221643e+003;4.254651e-002
3.223682e+003;4.261775e-002
3.225721e+003;4.295566e-002
3.227760e+003;4.338853e-002
3.229799e+003;4.371820e-002
3.231838e+003;4.385079e-002
3.233877e+003;4.388616e-002
3.235916e+003;4.398039e-002
3.237955e+003;4.419817e-002
3.239994e+003;4.448816e-002
3.242033e+003;4.477607e-002
3.244072e+003;4.501794e-002
3.246111e+003;4.522610e-002
3.248150e+003;4.538666e-002
3.250189e+003;4.538738e-002
3.252228e+003;4.534536e-002
3.254267e+003;4.549027e-002
3.256306e+003;4.564931e-002
3.258345e+003;4.564471e-002
3.260384e+003;4.570208e-002
3.262423e+003;4.595491e-002
3.264462e+003;4.622955e-002
3.266501e+003;4.648018e-002
3.268540e+003;4.688841e-002
3.270579e+003;4.748263e-002
3.272618e+003;4.802623e-002
3.274657e+003;4.825386e-002
3.276696e+003;4.814597e-002
3.278735e+003;4.800975e-002
3.280774e+003;4.810522e-002
3.282813e+003;4.834042e-002
3.284852e+003;4.846751e-002
3.286891e+003;4.843690e-002
3.288930e+003;4.854054e-002
3.290969e+003;4.893463e-002
3.293008e+003;4.923725e-002
3.295047e+003;4.916587e-002
3.297086e+003;4.904246e-002
3.299125e+003;4.924604e-002
3.301164e+003;4.969147e-002
3.303203e+003;5.006647e-002
3.305242e+003;5.027896e-002
3.307281e+003;5.037000e-002
3.309320e+003;5.025054e-002
3.311359e+003;5.000335e-002
3.313398e+003;4.987967e-002
3.315437e+003;4.993551e-002
3.317476e+003;5.013399e-002
3.319515e+003;5.039334e-002
3.321554e+003;5.064394e-002
3.323593e+003;5.089874e-002
3.325632e+003;5.113776e-002
3.327671e+003;5.131214e-002
3.329710e+003;5.145546e-002
3.331749e+003;5.162933e-002
3.333788e+003;5.173056e-002
3.335827e+003;5.176185e-002
3.337866e+003;5.191834e-002
3.339906e+003;5.209204e-002
3.341944e+003;5.210275e-002
3.343983e+003;5.215579e-002
3.346022e+003;5.239409e-002
3.348062e+003;5.259928e-002
3.350101e+003;5.263674e-002
3.352139e+003;5.271155e-002
3.354178e+003;5.303693e-002
3.356218e+003;5.342886e-002
3.358257e+003;5.360633e-002
3.360296e+003;5.364376e-002
3.362334e+003;5.373516e-002
3.364374e+003;5.385938e-002
3.366413e+003;5.392632e-002
3.368452e+003;5.402308e-002
3.370491e+003;5.421179e-002
3.372530e+003;5.433701e-002
3.374569e+003;5.429782e-002
3.376608e+003;5.421399e-002
3.378647e+003;5.425953e-002
3.380686e+003;5.455632e-002
3.382725e+003;5.492882e-002
3.384764e+003;5.510041e-002
3.386803e+003;5.507335e-002
3.388842e+003;5.505613e-002
3.390881e+003;5.523941e-002
3.392920e+003;5.536575e-002
3.394959e+003;5.527866e-002
3.396998e+003;5.516316e-002
3.399037e+003;5.499810e-002
3.401076e+003;5.478364e-002
3.403115e+003;5.449378e-002
3.405154e+003;5.421663e-002
3.407193e+003;5.420742e-002
3.409232e+003;5.438926e-002
3.411271e+003;5.445214e-002
3.413310e+003;5.427622e-002
3.415349e+003;5.411059e-002
3.417388e+003;5.425300e-002
3.419427e+003;5.441663e-002
3.421466e+003;5.398992e-002
3.423505e+003;5.318794e-002
3.425544e+003;5.263563e-002
3.427583e+003;5.227708e-002
3.429622e+003;5.195933e-002
3.431661e+003;5.174459e-002
3.433700e+003;5.153188e-002
3.435739e+003;5.131752e-002
3.437778e+003;5.120742e-002
3.439817e+003;5.115735e-002
3.441856e+003;5.100225e-002
3.443895e+003;5.084784e-002
3.445934e+003;5.079092e-002
3.447973e+003;5.026280e-002
3.450012e+003;4.927236e-002
3.452051e+003;4.856173e-002
3.454090e+003;4.821119e-002
3.456129e+003;4.801498e-002
3.458168e+003;4.791700e-002
3.460207e+003;4.772532e-002
3.462246e+003;4.722934e-002
3.464285e+003;4.659111e-002
3.466324e+003;4.612242e-002
3.468363e+003;4.576570e-002
3.470402e+003;4.547808e-002
3.472441e+003;4.534436e-002
3.474480e+003;4.519364e-002
3.476519e+003;4.493126e-002
3.478558e+003;4.476333e-002
3.480597e+003;4.457147e-002
3.482636e+003;4.400096e-002
3.484676e+003;4.331505e-002
3.486714e+003;4.284511e-002
3.488753e+003;4.241943e-002
3.490792e+003;4.201212e-002
3.492832e+003;4.181131e-002
3.494871e+003;4.165591e-002
3.496909e+003;4.134996e-002
3.498948e+003;4.126418e-002
3.500988e+003;4.155085e-002
3.503027e+003;4.125667e-002
3.505066e+003;4.019898e-002
3.507104e+003;3.966384e-002
3.509144e+003;3.951406e-002
3.511183e+003;3.875114e-002
3.513222e+003;3.763476e-002
3.515261e+003;3.682319e-002
3.517300e+003;3.638800e-002
3.519339e+003;3.633708e-002
3.521378e+003;3.677826e-002
3.523417e+003;3.713014e-002
3.525456e+003;3.680556e-002
3.527495e+003;3.605238e-002
3.529534e+003;3.502167e-002
3.531573e+003;3.392117e-002
3.533612e+003;3.315739e-002
3.535651e+003;3.257591e-002
3.537690e+003;3.174983e-002
3.539729e+003;3.112348e-002
3.541768e+003;3.146008e-002
3.543807e+003;3.242863e-002
3.545846e+003;3.244716e-002
3.547885e+003;3.111367e-002
3.549924e+003;3.015353e-002
3.551963e+003;2.970461e-002
3.554002e+003;2.869210e-002
3.556041e+003;2.763728e-002
3.558080e+003;2.732067e-002
3.560119e+003;2.739473e-002
3.562158e+003;2.786350e-002
3.564197e+003;2.946752e-002
3.566236e+003;3.081669e-002
3.568275e+003;2.869617e-002
3.570314e+003;2.549291e-002
3.572353e+003;2.393799e-002
3.574392e+003;2.340314e-002
3.576431e+003;2.293691e-002
3.578470e+003;2.243431e-002
3.580509e+003;2.202372e-002
3.582548e+003;2.213781e-002
3.584587e+003;2.337465e-002
3.586626e+003;2.461885e-002
3.588665e+003;2.328833e-002
3.590704e+003;2.142186e-002
3.592743e+003;2.115932e-002
3.594782e+003;2.132873e-002
3.596821e+003;2.096218e-002
3.598860e+003;2.039110e-002
3.600899e+003;1.931839e-002
3.602938e+003;1.813727e-002
3.604977e+003;1.828293e-002
3.607016e+003;1.936485e-002
3.609055e+003;1.954318e-002
3.611094e+003;1.940464e-002
3.613133e+003;1.964863e-002
3.615172e+003;1.952065e-002
3.617211e+003;1.948348e-002
3.619250e+003;1.859753e-002
3.621289e+003;1.642441e-002
3.623328e+003;1.544080e-002
3.625367e+003;1.659774e-002
3.627406e+003;1.884838e-002
3.629446e+003;1.844095e-002
3.631484e+003;1.605516e-002
3.633523e+003;1.455189e-002
3.635563e+003;1.347218e-002
3.637602e+003;1.300233e-002
3.639641e+003;1.311741e-002
3.641679e+003;1.328048e-002
3.643719e+003;1.401847e-002
3.645758e+003;1.670033e-002
3.647797e+003;2.072569e-002
3.649836e+003;2.019848e-002
3.651875e+003;1.628660e-002
3.653914e+003;1.461226e-002
3.655953e+003;1.406306e-002
3.657992e+003;1.296963e-002
3.660031e+003;1.209742e-002
3.662070e+003;1.183303e-002
3.664109e+003;1.188964e-002
3.666148e+003;1.281718e-002
3.668187e+003;1.503715e-002
3.670226e+003;1.667679e-002
3.672265e+003;1.716170e-002
3.674304e+003;1.813060e-002
3.676343e+003;1.671929e-002
3.678382e+003;1.345504e-002
3.680421e+003;1.111011e-002
3.682460e+003;9.766773e-003
3.684499e+003;9.810644e-003
3.686538e+003;1.133404e-002
3.688577e+003;1.296315e-002
3.690616e+003;1.168334e-002
3.692655e+003;9.150112e-003
3.694694e+003;7.765324e-003
3.696733e+003;7.340353e-003
3.698772e+003;7.676761e-003
3.700811e+003;8.341835e-003
3.702850e+003;8.276925e-003
3.704889e+003;8.080989e-003
3.706928e+003;8.962978e-003
3.708967e+003;1.105408e-002
3.711006e+003;1.237131e-002
3.713045e+003;1.053400e-002
3.715084e+003;8.593808e-003
3.717123e+003;8.193270e-003
3.719162e+003;8.761396e-003
3.721201e+003;9.619916e-003
3.723240e+003;1.018851e-002
3.725279e+003;1.003322e-002
3.727318e+003;9.202646e-003
3.729357e+003;8.991492e-003
3.731396e+003;1.079163e-002
3.733435e+003;1.430235e-002
3.735474e+003;1.529714e-002
3.737513e+003;1.264338e-002
3.739552e+003;1.113895e-002
3.741591e+003;1.174142e-002
3.743630e+003;1.282558e-002
3.745669e+003;1.307723e-002
3.747708e+003;1.401419e-002
3.749747e+003;1.543002e-002
3.751786e+003;1.354816e-002
3.753825e+003;1.055307e-002
3.755864e+003;9.796214e-003
3.757903e+003;1.009415e-002
3.759942e+003;9.360339e-003
3.761981e+003;8.303046e-003
3.764021e+003;8.327164e-003
3.766059e+003;8.775923e-003
3.768098e+003;8.932114e-003
3.770137e+003;8.340093e-003
3.772177e+003;7.235899e-003
3.774216e+003;6.801059e-003
3.776254e+003;7.317712e-003
3.778293e+003;8.199099e-003
3.780333e+003;8.341650e-003
3.782372e+003;8.105094e-003
3.784411e+003;8.023000e-003
3.786449e+003;7.564113e-003
3.788489e+003;7.003548e-003
3.790528e+003;6.810262e-003
3.792567e+003;7.183261e-003
3.794606e+003;8.286002e-003
3.796645e+003;9.660861e-003
3.798684e+003;1.103884e-002
3.800723e+003;1.220078e-002
3.802762e+003;1.166002e-002
3.804801e+003;1.063389e-002
3.806840e+003;9.510785e-003
3.808879e+003;7.928426e-003
3.810918e+003;7.576124e-003
3.812957e+003;8.820566e-003
3.814996e+003;1.070953e-002
3.817035e+003;1.209619e-002
3.819074e+003;1.334705e-002
3.821113e+003;1.309676e-002
3.823152e+003;1.081166e-002
3.825191e+003;9.609939e-003
3.827230e+003;9.311065e-003
3.829269e+003;9.365153e-003
3.831308e+003;9.828569e-003
3.833347e+003;1.055922e-002
3.835386e+003;1.182741e-002
3.837425e+003;1.324426e-002
3.839464e+003;1.300532e-002
3.841503e+003;1.132386e-002
3.843542e+003;9.646462e-003
3.845581e+003;8.637059e-003
3.847620e+003;8.955764e-003
3.849659e+003;1.108122e-002
3.851698e+003;1.422831e-002
3.853737e+003;1.393052e-002
3.855776e+003;1.046645e-002
3.857815e+003;8.713748e-003
3.859854e+003;8.647410e-003
3.861893e+003;9.887964e-003
3.863932e+003;1.073322e-002
3.865971e+003;1.037137e-002
3.868010e+003;1.073357e-002
3.870049e+003;1.141139e-002
3.872088e+003;1.080054e-002
3.874127e+003;9.335318e-003
3.876166e+003;8.186042e-003
3.878205e+003;8.693465e-003
3.880244e+003;1.006215e-002
3.882283e+003;1.070008e-002
3.884322e+003;1.066498e-002
3.886361e+003;9.524624e-003
3.888400e+003;8.764407e-003
3.890439e+003;9.182922e-003
3.892478e+003;8.847671e-003
3.894517e+003;8.026640e-003
3.896556e+003;8.640096e-003
3.898595e+003;1.046378e-002
3.900634e+003;1.186641e-002
3.902673e+003;1.192430e-002
3.904712e+003;1.040247e-002
3.906751e+003;8.159057e-003
3.908791e+003;6.717109e-003
3.910829e+003;6.375953e-003
3.912868e+003;6.917770e-003
3.914907e+003;8.083310e-003
3.916947e+003;8.966439e-003
3.918986e+003;8.830684e-003
3.921024e+003;8.608356e-003
3.923063e+003;8.724841e-003
3.925103e+003;8.265158e-003
3.927142e+003;7.800401e-003
3.929181e+003;8.608568e-003
3.931219e+003;9.538383e-003
3.933259e+003;8.919641e-003
3.935298e+003;7.762978e-003
3.937337e+003;7.416366e-003
3.939376e+003;7.845839e-003
3.941415e+003;8.470971e-003
3.943454e+003;8.642524e-003
3.945493e+003;8.686230e-003
3.947532e+003;9.098167e-003
3.949571e+003;8.958115e-003
3.951610e+003;7.988960e-003
3.953649e+003;7.193367e-003
3.955688e+003;6.954699e-003
3.957727e+003;6.990447e-003
3.959766e+003;7.148417e-003
3.961805e+003;7.289571e-003
3.963844e+003;7.108077e-003
3.965883e+003;6.841239e-003
3.967922e+003;6.889155e-003
3.969961e+003;7.096947e-003
3.972000e+003;7.219607e-003
3.974039e+003;7.251455e-003
3.976078e+003;7.087001e-003
3.978117e+003;6.837584e-003
3.980156e+003;6.756650e-003
3.982195e+003;6.716872e-003
3.984234e+003;6.635488e-003
3.986273e+003;6.725600e-003
3.988312e+003;6.974454e-003
3.990351e+003;7.004232e-003
3.992390e+003;6.842633e-003
3.994429e+003;6.834849e-003
3.996468e+003;6.928396e-003
3.998507e+003;0.000000e+000
4.000546e+003;0.000000e+000
